Name,Waqar Muhammad
Date of Birth,"Jul 5, 1993"
Recorded Date,2023-08-05 17:05:36 -0500
Classification,Sinus Rhythm
Symptoms,
Software Version,1.90
Device,"Watch6,7"
Sample Rate,512 hertz


Lead,Lead I
Unit,µV

78.191
80.38
82.339
84.052
85.506
86.689
87.59
88.198
88.506
88.505
88.19
87.557
86.604
85.328
83.732
81.817
79.587
77.049
74.21
71.079
67.668
63.987
60.052
55.877
51.479
46.875
42.085
37.129
32.027
26.8
21.473
16.066
10.604
5.11
-0.394
-5.884
-11.337
-16.732
-22.046
-27.258
-32.349
-37.299
-42.089
-46.702
-51.124
-55.338
-59.332
-63.094
-66.615
-69.884
-72.897
-75.646
-78.128
-80.341
-82.283
-83.956
-85.361
-86.502
-87.384
-88.014
-88.399
-88.548
-88.472
-88.181
-87.688
-87.003
-86.142
-85.117
-83.942
-82.633
-81.203
-79.667
-78.04
-76.337
-74.571
-72.757
-70.908
-69.038
-67.158
-65.281
-63.418
-61.579
-59.774
-58.012
-56.301
-54.648
-53.059
-51.541
-50.095
-48.726
-47.434
-46.22
-45.085
-44.027
-43.043
-42.132
-41.288
-40.508
-39.785
-39.114
-38.488
-37.899
-37.34
-36.801
-36.274
-35.751
-35.222
-34.681
-34.117
-33.523
-32.89
-32.21
-31.475
-30.679
-29.815
-28.875
-27.857
-26.753
-25.563
-24.284
-22.916
-21.459
-19.916
-18.289
-16.583
-14.806
-12.964
-11.065
-9.115
-7.119
-5.086
-3.024
-0.943
1.146
3.236
5.318
7.379
9.407
11.389
13.311
15.173
16.976
18.721
20.41
22.024
23.541
24.947
26.235
27.397
28.441
29.347
30.089
30.723
31.305
31.887
32.539
33.217
33.843
34.451
35.075
35.638
36.117
36.424
36.42
36.25
36.077
35.868
35.619
35.38
35.101
34.882
34.858
34.763
34.34
33.506
32.117
30.07
27.297
23.581
18.768
13.14
7.089
0.961
-4.854
-10.025
-14.159
-16.804
-17.68
-16.978
-15.251
-13.108
-11.218
-10.285
-11.021
-14.164
-19.75
-26.534
-32.676
-36.078
-35.771
-32.627
-27.515
-20.53
-9.245
11.39
47.159
102.601
178.158
270.64
371.608
469.344
552.115
606.564
624.13
600.114
531.756
422.941
277.442
102.682
-86.105
-271.891
-432.665
-549.136
-614.359
-630.812
-610.093
-567.788
-514.62
-456.431
-397.59
-340.622
-287.601
-241.195
-200.223
-161.566
-124.514
-89.035
-57.345
-33.262
-17.33
-8.17
-3.981
-2.198
-1.532
-1.81
-2.464
-3.009
-3.471
-3.971
-4.661
-5.675
-6.718
-7.315
-7.445
-7.275
-6.723
-5.678
-4.038
-1.806
0.58
2.615
4.143
5.197
5.818
6.116
6.164
6.114
6.375
7.31
9.065
11.655
14.978
18.867
23.191
27.784
32.389
36.814
40.957
44.762
48.253
51.464
54.409
57.121
59.652
62.042
64.32
66.522
68.669
70.799
72.966
75.21
77.563
80.047
82.671
85.436
88.342
91.38
94.529
97.773
101.095
104.478
107.91
111.372
114.844
118.3
121.713
125.056
128.305
131.435
134.422
137.245
139.88
142.31
144.517
146.481
148.183
149.603
150.72
151.515
151.973
152.077
151.814
151.171
150.139
148.712
146.885
144.657
142.027
138.997
135.571
131.756
127.562
123
118.084
112.828
107.252
101.375
95.219
88.806
82.161
75.31
68.278
61.093
53.784
46.379
38.907
31.398
23.881
16.386
8.942
1.576
-5.683
-12.808
-19.774
-26.557
-33.133
-39.482
-45.583
-51.419
-56.973
-62.232
-67.183
-71.816
-76.123
-80.098
-83.737
-87.038
-90.001
-92.628
-94.923
-96.891
-98.539
-99.875
-100.911
-101.657
-102.126
-102.332
-102.289
-102.014
-101.523
-100.833
-99.961
-98.925
-97.744
-96.435
-95.017
-93.506
-91.922
-90.281
-88.6
-86.893
-85.178
-83.467
-81.773
-80.109
-78.485
-76.912
-75.397
-73.947
-72.569
-71.266
-70.042
-68.897
-67.834
-66.85
-65.942
-65.108
-64.343
-63.642
-62.998
-62.404
-61.851
-61.33
-60.833
-60.349
-59.867
-59.376
-58.864
-58.32
-57.733
-57.09
-56.38
-55.593
-54.718
-53.744
-52.665
-51.47
-50.153
-48.707
-47.127
-45.408
-43.548
-41.545
-39.398
-37.109
-34.681
-32.121
-29.435
-26.629
-23.714
-20.698
-17.592
-14.409
-11.16
-7.853
-4.501
-1.118
2.283
5.686
9.074
12.434
15.748
19
22.176
25.26
28.243
31.119
33.88
36.515
39.014
41.361
43.544
45.557
47.394
49.053
50.538
51.856
53.025
54.074
55.024
55.892
56.693
57.433
58.123
58.777
59.408
60.034
60.669
61.325
62.01
62.723
63.436
64.113
64.7
65.124
65.33
65.258
64.846
64.045
62.8
61.065
58.833
56.083
52.777
48.927
44.585
39.903
35.177
30.708
26.755
23.64
21.689
21.139
22.136
24.531
27.81
31.419
34.883
37.633
39.061
38.715
36.14
31.832
27.842
26.415
29.882
39.262
52.12
65.691
78.58
91.566
112.232
149.762
209.512
293.286
391.704
488.649
569.339
618.405
628.307
598.055
526.637
417.81
275.595
106.796
-72.704
-244.086
-385.422
-478.938
-520.744
-516.531
-481.46
-432.897
-380.79
-330.479
-282.141
-234.081
-187.04
-141.817
-99.3
-59.795
-23.429
8.907
35.834
55.623
68.218
74.896
77.405
78.109
78.53
79.511
81.851
85.659
90.667
96.592
102.877
108.92
114.288
118.484
121.064
121.985
121.453
119.804
117.492
114.934
112.463
110.439
109.203
108.929
109.674
111.417
114.057
117.498
121.652
126.401
131.591
137.076
142.715
148.37
153.945
159.352
164.515
169.383
173.922
178.118
181.972
185.502
188.728
191.679
194.39
196.893
199.234
201.464
203.639
205.822
208.062
210.39
212.834
215.405
218.112
220.955
223.926
227.007
230.182
233.436
236.755
240.126
243.533
246.954
250.369
253.75
257.076
260.325
263.476
266.509
269.403
272.139
274.7
277.071
279.235
281.174
282.869
284.301
285.453
286.307
286.849
287.063
286.936
286.458
285.621
284.418
282.845
280.9
278.583
275.896
272.842
269.428
265.661
261.552
257.111
252.353
247.293
241.948
236.336
230.478
224.394
218.106
211.637
205.011
198.251
191.384
184.433
177.425
170.385
163.339
156.311
149.327
142.411
135.586
128.874
122.297
115.875
109.626
103.567
97.714
92.081
86.68
81.521
76.613
71.964
67.58
63.463
59.617
56.043
52.74
49.705
46.936
44.427
42.172
40.164
38.394
36.852
35.528
34.411
33.488
32.746
32.172
31.752
31.471
31.315
31.268
31.316
31.444
31.637
31.88
32.16
32.463
32.776
33.087
33.384
33.656
33.893
34.086
34.226
34.304
34.316
34.253
34.112
33.889
33.581
33.186
32.704
32.136
31.482
30.745
29.927
29.034
28.07
27.04
25.95
24.808
23.622
22.4
21.151
19.885
18.611
17.34
16.08
14.843
13.637
12.472
11.356
10.298
9.308
8.393
7.56
6.817
6.167
5.619
5.175
4.839
4.611
4.489
4.472
4.557
4.74
5.017
5.382
5.826
6.345
6.935
7.589
8.299
9.054
9.843
10.654
11.477
12.3
13.11
13.894
14.642
15.345
16.001
16.605
17.147
17.616
17.993
18.264
18.425
18.466
18.385
18.182
17.862
17.441
16.95
16.409
15.837
15.246
14.641
14.033
13.44
12.874
12.359
11.911
11.54
11.252
11.04
10.872
10.704
10.478
10.115
9.543
8.689
7.472
5.823
3.672
0.976
-2.299
-6.222
-10.812
-16.051
-21.837
-27.904
-33.94
-39.677
-44.791
-48.906
-51.778
-53.189
-53.131
-52.093
-50.595
-49.087
-48.213
-48.532
-50.384
-54.192
-59.615
-64.921
-68.244
-67.578
-61.705
-51.478
-38.176
-22.395
-2.743
24.238
63.407
118.828
190.609
276.288
368.845
457.587
532.272
580.871
593.845
565.455
491.385
373.425
216.894
32.049
-162.312
-345.308
-494.561
-592.992
-637.976
-636.23
-603.145
-555.771
-502.322
-447.021
-390.101
-331.066
-274.858
-225.325
-184.646
-153.017
-126.38
-102.426
-81.179
-63.537
-51.7
-45.936
-44.496
-45.208
-45.781
-44.874
-42.064
-37.458
-31.538
-24.808
-17.886
-11.432
-5.98
-2.047
-0.025
0.085
-1.498
-4.421
-8.19
-12.355
-16.508
-20.229
-23.178
-25.175
-26.152
-26.127
-25.174
-23.362
-20.773
-17.518
-13.714
-9.481
-4.929
-0.165
4.693
9.542
14.283
18.836
23.158
27.223
31.018
34.55
37.836
40.901
43.785
46.527
49.162
51.733
54.283
56.863
59.528
62.321
65.272
68.399
71.712
75.211
78.892
82.744
86.744
90.87
95.1
99.413
103.792
108.214
112.654
117.085
121.478
125.805
130.044
134.168
138.154
141.979
145.62
149.056
152.27
155.243
157.953
160.38
162.505
164.309
165.776
166.89
167.636
168.004
167.985
167.571
166.76
165.551
163.943
161.939
159.546
156.769
153.619
150.107
146.247
142.054
137.545
132.739
127.657
122.319
116.749
110.97
105.007
98.884
92.627
86.263
79.817
73.316
66.785
60.252
53.741
47.279
40.888
34.592
28.413
22.372
16.488
10.779
5.26
-0.054
-5.151
-10.02
-14.652
-19.039
-23.176
-27.059
-30.685
-34.053
-37.164
-40.021
-42.626
-44.984
-47.101
-48.985
-50.642
-52.082
-53.316
-54.353
-55.205
-55.883
-56.401
-56.772
-57.008
-57.123
-57.131
-57.045
-56.88
-56.649
-56.364
-56.04
-55.687
-55.318
-54.944
-54.576
-54.224
-53.896
-53.603
-53.351
-53.148
-53
-52.912
-52.889
-52.935
-53.052
-53.243
-53.509
-53.851
-54.267
-54.757
-55.318
-55.948
-56.643
-57.399
-58.21
-59.07
-59.972
-60.911
-61.88
-62.871
-63.876
-64.885
-65.891
-66.885
-67.858
-68.8
-69.7
-70.549
-71.335
-72.054
-72.697
-73.258
-73.729
-74.101
-74.365
-74.516
-74.548
-74.457
-74.239
-73.89
-73.411
-72.806
-72.083
-71.249
-70.312
-69.276
-68.146
-66.922
-65.617
-64.248
-62.834
-61.399
-59.959
-58.515
-57.079
-55.665
-54.288
-52.976
-51.732
-50.517
-49.354
-48.318
-47.479
-46.933
-46.686
-46.613
-46.667
-46.898
-47.229
-47.521
-47.604
-47.2
-46.286
-45.153
-43.953
-42.715
-41.583
-40.703
-40.285
-40.718
-42.008
-43.755
-45.729
-47.801
-49.805
-51.676
-53.252
-54.209
-54.579
-54.729
-54.89
-55.224
-55.868
-56.875
-58.458
-60.95
-64.43
-68.734
-73.716
-79.279
-85.331
-91.685
-97.831
-103.104
-107.025
-109.38
-110.1
-109.08
-106.238
-101.808
-96.563
-91.532
-87.666
-85.683
-85.99
-89.066
-94.995
-102.701
-110.232
-115.065
-115.603
-112.245
-106.359
-98.858
-87.807
-68.328
-33.711
22.116
100.493
198.715
308.344
416.753
511.399
577.934
606.095
590.124
526.893
420.781
277.401
105.077
-82.042
-268.908
-436.25
-565.609
-647.225
-679.701
-670.834
-634.085
-581.176
-520.309
-457.782
-397.496
-342.837
-296.454
-257.304
-222.338
-188.239
-153.441
-119.314
-89.064
-65.676
-49.593
-39.656
-33.94
-30.496
-28.698
-28.319
-28.852
-30.008
-31.702
-33.742
-36.101
-38.535
-40.342
-41.162
-41.018
-39.972
-38.022
-35.152
-31.347
-26.887
-22.488
-18.612
-15.357
-12.721
-10.593
-8.869
-7.497
-6.23
-4.574
-2.215
0.924
4.819
9.295
14.178
19.37
24.693
29.898
34.83
39.407
43.599
47.461
51.034
54.329
57.39
60.261
62.976
65.577
68.101
70.576
73.047
75.554
78.126
80.788
83.551
86.419
89.393
92.465
95.618
98.838
102.111
105.426
108.772
112.135
115.496
118.836
122.128
125.35
128.482
131.5
134.383
137.109
139.659
142.016
144.165
146.087
147.765
149.179
150.312
151.144
151.661
151.846
151.686
151.168
150.283
149.023
147.383
145.36
142.952
140.16
136.986
133.436
129.516
125.237
120.608
115.644
110.358
104.769
98.894
92.755
86.372
79.768
72.966
65.992
58.872
51.63
44.294
36.89
29.445
21.987
14.543
7.139
-0.199
-7.444
-14.573
-21.56
-28.385
-35.025
-41.461
-47.674
-53.647
-59.367
-64.819
-69.992
-74.875
-79.462
-83.746
-87.723
-91.39
-94.746
-97.792
-100.532
-102.968
-105.107
-106.956
-108.523
-109.817
-110.849
-111.632
-112.177
-112.498
-112.61
-112.528
-112.267
-111.844
-111.275
-110.577
-109.765
-108.858
-107.872
-106.823
-105.728
-104.602
-103.46
-102.316
-101.185
-100.08
-99.012
-97.991
-97.029
-96.133
-95.312
-94.571
-93.917
-93.354
-92.883
-92.507
-92.227
-92.042
-91.949
-91.945
-92.026
-92.186
-92.421
-92.722
-93.081
-93.49
-93.939
-94.419
-94.917
-95.423
-95.924
-96.408
-96.861
-97.273
-97.629
-97.917
-98.125
-98.239
-98.25
-98.146
-97.918
-97.556
-97.051
-96.396
-95.586
-94.615
-93.481
-92.181
-90.715
-89.084
-87.292
-85.347
-83.252
-81.017
-78.648
-76.158
-73.558
-70.858
-68.07
-65.205
-62.278
-59.304
-56.3
-53.286
-50.276
-47.289
-44.342
-41.456
-38.648
-35.931
-33.315
-30.81
-28.429
-26.187
-24.104
-22.194
-20.463
-18.919
-17.566
-16.405
-15.433
-14.635
-13.983
-13.455
-13.035
-12.716
-12.497
-12.365
-12.302
-12.289
-12.306
-12.342
-12.397
-12.453
-12.502
-12.559
-12.657
-12.854
-13.234
-13.843
-14.72
-15.914
-17.466
-19.441
-21.901
-24.867
-28.361
-32.419
-37.041
-42.223
-47.884
-53.754
-59.522
-64.885
-69.466
-72.919
-74.992
-75.429
-74.209
-71.773
-68.64
-65.351
-62.681
-61.322
-61.788
-64.673
-69.693
-75.15
-79.26
-79.971
-76.003
-68.005
-56.587
-41.696
-21.639
6.966
48.418
106.253
180.676
269.542
365.669
457.536
533.276
579.429
586.566
550.474
469.336
347.326
190.577
8.576
-181.644
-361.206
-508.774
-606.837
-651.209
-647.037
-608.913
-554.894
-496.383
-440.25
-388.303
-339.363
-293.617
-250.795
-210.206
-170.824
-132.344
-95.954
-63.852
-38.832
-21.534
-10.78
-4.941
-1.996
-0.804
-0.812
-1.095
-0.763
0.553
2.907
6.14
10.09
14.773
20.048
25.309
29.72
32.891
34.83
35.734
35.84
35.169
33.801
32.153
30.853
30.338
30.799
32.255
34.633
37.962
42.263
47.398
53.099
59.1
65.203
71.268
77.218
82.974
88.444
93.586
98.395
102.882
107.071
110.984
114.638
118.055
121.269
124.311
127.225
130.063
132.876
135.723
138.648
141.677
144.832
148.123
151.557
155.132
158.838
162.653
166.558
170.537
174.573
178.651
182.751
186.845
190.909
194.914
198.838
202.655
206.343
209.877
213.234
216.392
219.331
222.034
224.481
226.652
228.527
230.085
231.308
232.18
232.685
232.81
232.54
231.868
230.786
229.29
227.378
225.048
222.304
219.15
215.592
211.64
207.305
202.601
197.542
192.146
186.432
180.423
174.139
167.606
160.848
153.891
146.764
139.493
132.106
124.634
117.104
109.545
101.986
94.455
86.981
79.589
72.307
65.158
58.168
51.358
44.749
38.36
32.208
26.309
20.676
15.323
10.259
5.492
1.029
-3.125
-6.967
-10.497
-13.716
-16.624
-19.227
-21.529
-23.537
-25.26
-26.707
-27.888
-28.814
-29.498
-29.953
-30.193
-30.233
-30.087
-29.771
-29.301
-28.691
-27.959
-27.119
-26.187
-25.178
-24.108
-22.99
-21.84
-20.672
-19.497
-18.329
-17.18
-16.06
-14.979
-13.948
-12.975
-12.066
-11.23
-10.471
-9.795
-9.208
-8.71
-8.306
-7.997
-7.784
-7.666
-7.642
-7.71
-7.867
-8.11
-8.435
-8.837
-9.312
-9.853
-10.454
-11.11
-11.813
-12.556
-13.33
-14.127
-14.939
-15.758
-16.574
-17.379
-18.166
-18.924
-19.647
-20.329
-20.961
-21.536
-22.049
-22.494
-22.864
-23.157
-23.368
-23.494
-23.532
-23.482
-23.346
-23.126
-22.826
-22.449
-21.999
-21.483
-20.907
-20.278
-19.6
-18.878
-18.118
-17.328
-16.517
-15.695
-14.872
-14.056
-13.258
-12.49
-11.761
-11.078
-10.448
-9.87
-9.349
-8.889
-8.499
-8.194
-7.983
-7.871
-7.865
-7.966
-8.172
-8.477
-8.866
-9.31
-9.787
-10.282
-10.779
-11.275
-11.762
-12.226
-12.657
-13.037
-13.349
-13.581
-13.728
-13.794
-13.804
-13.793
-13.813
-13.934
-14.223
-14.752
-15.599
-16.826
-18.495
-20.636
-23.279
-26.479
-30.256
-34.601
-39.421
-44.479
-49.502
-54.257
-58.458
-61.77
-63.937
-64.734
-64.162
-62.681
-60.803
-58.989
-57.872
-58.055
-59.992
-64.213
-70.303
-76.399
-80.597
-80.781
-76.023
-67.85
-57.47
-45.468
-30.318
-6.893
30.309
85.922
161.166
251.358
347.228
435.602
502.66
537.564
533.181
487.094
400.147
274.673
116.741
-62.379
-245.243
-408.992
-532.587
-603.529
-621.624
-598.642
-551.555
-496.121
-442.306
-394.12
-352.229
-314.765
-280.155
-246.625
-211.673
-175.666
-140.144
-107.412
-81.241
-62.601
-50.342
-43.166
-38.818
-35.944
-34.35
-33.374
-32.169
-30.277
-27.497
-23.824
-19.575
-14.89
-9.647
-4.16
0.891
4.994
7.895
9.616
10.422
10.436
9.618
8.159
6.506
5.167
4.513
4.684
5.669
7.468
10.142
13.694
17.983
22.755
27.79
32.94
38.098
43.204
48.164
52.883
57.325
61.494
65.397
69.052
72.471
75.654
78.629
81.431
84.088
86.644
89.14
91.617
94.128
96.714
99.398
102.203
105.136
108.2
111.394
114.71
118.128
121.632
125.204
128.826
132.483
136.155
139.816
143.442
147.006
150.484
153.854
157.095
160.183
163.098
165.82
168.331
170.614
172.653
174.429
175.924
177.121
178.003
178.557
178.769
178.627
178.121
177.242
175.987
174.352
172.336
169.942
167.17
164.028
160.523
156.665
152.464
147.935
143.092
137.952
132.534
126.856
120.942
114.81
108.486
101.991
95.35
88.589
81.731
74.803
67.829
60.835
53.846
46.886
39.981
33.154
26.427
19.822
13.361
7.062
0.944
-4.976
-10.685
-16.167
-21.412
-26.409
-31.15
-35.626
-39.834
-43.768
-47.427
-50.809
-53.915
-56.747
-59.307
-61.602
-63.634
-65.412
-66.943
-68.234
-69.297
-70.14
-70.774
-71.212
-71.465
-71.546
-71.468
-71.244
-70.889
-70.416
-69.839
-69.173
-68.429
-67.624
-66.769
-65.877
-64.963
-64.037
-63.111
-62.196
-61.302
-60.44
-59.617
-58.843
-58.124
-57.467
-56.877
-56.36
-55.92
-55.56
-55.284
-55.091
-54.985
-54.964
-55.028
-55.175
-55.403
-55.707
-56.084
-56.529
-57.035
-57.598
-58.209
-58.862
-59.547
-60.258
-60.985
-61.717
-62.447
-63.162
-63.855
-64.515
-65.133
-65.698
-66.201
-66.635
-66.991
-67.262
-67.441
-67.521
-67.498
-67.366
-67.121
-66.762
-66.286
-65.692
-64.979
-64.152
-63.215
-62.173
-61.032
-59.8
-58.485
-57.097
-55.646
-54.142
-52.592
-51.005
-49.394
-47.771
-46.15
-44.543
-42.963
-41.423
-39.938
-38.521
-37.183
-35.932
-34.771
-33.705
-32.743
-31.894
-31.173
-30.592
-30.156
-29.871
-29.74
-29.76
-29.927
-30.223
-30.62
-31.094
-31.627
-32.202
-32.81
-33.436
-34.058
-34.659
-35.213
-35.7
-36.1
-36.403
-36.609
-36.74
-36.832
-36.935
-37.113
-37.43
-37.955
-38.764
-39.927
-41.516
-43.576
-46.148
-49.301
-53.061
-57.419
-62.282
-67.388
-72.43
-77.136
-81.189
-84.223
-85.989
-86.277
-85.111
-83.006
-80.548
-78.266
-76.844
-76.915
-78.929
-83.375
-89.865
-96.44
-100.808
-100.488
-94.139
-83.175
-69.555
-54.474
-36.523
-10.055
32.031
95.351
180.662
281.744
387.134
482.822
555.878
596.831
599.509
560.043
476.016
347.607
179.467
-16.076
-218.037
-402.14
-545.155
-632.303
-663.169
-646.339
-596.954
-531.189
-459.26
-389.317
-326.863
-274.309
-233.21
-201.431
-174.283
-147.74
-120.257
-93.313
-70.305
-54.211
-45.048
-41.011
-39.747
-38.793
-37.085
-34.335
-30.215
-24.935
-18.925
-12.521
-6.235
-0.556
4.236
7.808
9.851
10.404
9.719
8.139
6.099
3.981
2.073
0.679
0.097
0.467
1.835
4.173
7.383
11.367
16.037
21.278
26.944
32.896
39.001
45.129
51.186
57.087
62.756
68.143
73.215
77.953
82.36
86.448
90.236
93.751
97.025
100.091
102.989
105.764
108.466
111.151
113.858
116.617
119.448
122.361
125.36
128.446
131.609
134.832
138.1
141.399
144.713
148.03
151.336
154.611
157.834
160.984
164.039
166.981
169.792
172.454
174.949
177.262
179.376
181.281
182.961
184.402
185.589
186.505
187.137
187.471
187.497
187.203
186.579
185.618
184.315
182.668
180.675
178.337
175.655
172.633
169.278
165.597
161.6
157.297
152.7
147.825
142.687
137.303
131.692
125.873
119.865
113.692
107.373
100.933
94.394
87.78
81.112
74.416
67.714
61.03
54.386
47.804
41.305
34.909
28.637
22.506
16.534
10.736
5.126
-0.282
-5.478
-10.45
-15.191
-19.693
-23.95
-27.958
-31.714
-35.216
-38.464
-41.459
-44.203
-46.7
-48.954
-50.972
-52.759
-54.323
-55.672
-56.816
-57.763
-58.525
-59.112
-59.534
-59.803
-59.931
-59.929
-59.81
-59.584
-59.263
-58.861
-58.387
-57.853
-57.271
-56.65
-56.002
-55.337
-54.663
-53.992
-53.331
-52.688
-52.073
-51.492
-50.952
-50.459
-50.018
-49.634
-49.312
-49.055
-48.865
-48.744
-48.696
-48.719
-48.815
-48.985
-49.226
-49.538
-49.918
-50.365
-50.876
-51.445
-52.07
-52.745
-53.464
-54.223
-55.015
-55.833
-56.67
-57.519
-58.371
-59.219
-60.054
-60.867
-61.648
-62.389
-63.081
-63.714
-64.281
-64.773
-65.182
-65.5
-65.72
-65.836
-65.842
-65.733
-65.504
-65.151
-64.673
-64.069
-63.336
-62.476
-61.489
-60.379
-59.152
-57.815
-56.375
-54.841
-53.226
-51.54
-49.796
-48.004
-46.173
-44.314
-42.439
-40.558
-38.686
-36.836
-35.021
-33.257
-31.558
-29.933
-28.392
-26.938
-25.569
-24.285
-23.092
-21.996
-21.012
-20.155
-19.434
-18.857
-18.434
-18.162
-18.031
-18.026
-18.117
-18.291
-18.548
-18.887
-19.315
-19.828
-20.404
-21.02
-21.652
-22.258
-22.79
-23.247
-23.656
-24.105
-24.744
-25.698
-27.066
-28.922
-31.309
-34.156
-37.281
-40.42
-43.244
-45.55
-47.27
-48.431
-49.105
-49.459
-49.783
-50.404
-51.633
-53.564
-56.074
-58.925
-61.899
-64.881
-67.783
-70.571
-73.263
-76.158
-79.721
-84.364
-90.462
-97.316
-102.939
-105.38
-102.49
-93.471
-80.582
-65.149
-46.868
-23.558
12.158
66.487
141.004
234.353
337.133
436.981
522.912
581.862
605.478
588.113
525.021
418.639
272.942
96.815
-93.269
-279.984
-442.626
-563.321
-634.613
-657.121
-639.583
-595.839
-537.91
-474.27
-412.344
-356.34
-307.226
-265.634
-228.442
-191.535
-154.789
-119.257
-87.935
-64.909
-50.572
-43.206
-40.61
-39.881
-39.297
-38.215
-35.933
-32.032
-26.582
-19.905
-12.525
-5.152
1.588
7.246
11.36
13.596
14.001
12.83
10.466
7.438
4.218
1.186
-1.282
-2.9
-3.543
-3.164
-1.788
0.494
3.595
7.414
11.829
16.726
21.991
27.518
33.203
38.916
44.538
49.98
55.177
60.093
64.718
69.037
73.053
76.791
80.285
83.577
86.705
89.699
92.592
95.43
98.258
101.132
104.095
107.171
110.374
113.711
117.181
120.782
124.5
128.311
132.193
136.123
140.082
144.055
148.022
151.959
155.839
159.636
163.326
166.887
170.297
173.533
176.572
179.395
181.984
184.323
186.395
188.182
189.665
190.828
191.655
192.132
192.247
191.987
191.344
190.311
188.884
187.061
184.844
182.234
179.236
175.858
172.109
167.999
163.543
158.754
153.65
148.248
142.568
136.632
130.463
124.082
117.516
110.788
103.925
96.954
89.9
82.79
75.652
68.511
61.394
54.326
47.333
40.439
33.667
27.039
20.576
14.298
8.222
2.364
-3.262
-8.642
-13.767
-18.627
-23.215
-27.526
-31.555
-35.3
-38.76
-41.937
-44.831
-47.448
-49.793
-51.871
-53.69
-55.259
-56.588
-57.688
-58.568
-59.242
-59.722
-60.021
-60.152
-60.13
-59.969
-59.683
-59.287
-58.795
-58.222
-57.582
-56.888
-56.155
-55.394
-54.618
-53.84
-53.071
-52.32
-51.599
-50.917
-50.281
-49.702
-49.185
-48.736
-48.362
-48.067
-47.855
-47.728
-47.69
-47.741
-47.882
-48.114
-48.436
-48.848
-49.346
-49.928
-50.592
-51.333
-52.147
-53.028
-53.969
-54.965
-56.007
-57.089
-58.203
-59.34
-60.492
-61.649
-62.804
-63.947
-65.068
-66.158
-67.205
-68.202
-69.137
-70.003
-70.789
-71.488
-72.09
-72.588
-72.976
-73.247
-73.396
-73.416
-73.304
-73.055
-72.668
-72.14
-71.472
-70.662
-69.712
-68.628
-67.415
-66.08
-64.631
-63.074
-61.421
-59.682
-57.868
-55.989
-54.054
-52.074
-50.062
-48.032
-45.999
-43.979
-41.983
-40.027
-38.126
-36.296
-34.549
-32.894
-31.335
-29.879
-28.536
-27.317
-26.241
-25.318
-24.552
-23.948
-23.51
-23.233
-23.111
-23.126
-23.247
-23.451
-23.722
-24.046
-24.417
-24.821
-25.235
-25.644
-26.026
-26.364
-26.648
-26.872
-27.037
-27.171
-27.314
-27.521
-27.866
-28.41
-29.216
-30.35
-31.873
-33.848
-36.315
-39.305
-42.868
-47.012
-51.717
-56.887
-62.289
-67.65
-72.717
-77.181
-80.687
-82.967
-83.785
-83.112
-81.318
-78.799
-75.932
-73.285
-71.467
-71.033
-72.604
-76.007
-79.766
-82.215
-81.483
-76.592
-68.566
-58.778
-47.933
-34.505
-14.207
19.454
72.282
145.809
237.837
339.485
437.621
519.837
572.485
586.76
558.683
485.371
369.999
217.251
35.44
-158.14
-343.914
-498.726
-602.878
-651.165
-648.116
-608.825
-552.698
-492.105
-434.745
-383.067
-336.49
-295.09
-258.746
-226.668
-195.578
-163.879
-131.306
-98.413
-70.022
-48.46
-33.688
-25.621
-20.772
-16.758
-13.077
-8.82
-4.488
-0.716
2.462
4.607
5.457
4.996
3.278
0.646
-2.463
-5.577
-8.15
-9.688
-9.837
-8.381
-5.45
-1.487
3.105
7.908
12.559
16.862
20.694
24.007
26.982
29.965
33.197
36.864
41.05
45.675
50.658
55.902
61.226
66.428
71.372
75.97
80.2
84.11
87.74
91.133
94.345
97.427
100.427
103.386
106.336
109.31
112.337
115.44
118.638
121.942
125.355
128.876
132.494
136.189
139.943
143.736
147.551
151.374
155.188
158.975
162.714
166.38
169.952
173.407
176.724
179.879
182.849
185.615
188.158
190.461
192.509
194.282
195.762
196.93
197.771
198.268
198.407
198.176
197.562
196.558
195.159
193.36
191.162
188.564
185.568
182.18
178.407
174.257
169.742
164.874
159.669
154.144
148.317
142.208
135.84
129.235
122.418
115.412
108.244
100.941
93.529
86.036
78.488
70.914
63.341
55.795
48.304
40.893
33.586
26.408
19.381
12.527
5.866
-0.585
-6.809
-12.79
-18.515
-23.972
-29.151
-34.044
-38.644
-42.947
-46.949
-50.649
-54.047
-57.145
-59.945
-62.454
-64.676
-66.62
-68.292
-69.704
-70.864
-71.784
-72.476
-72.953
-73.227
-73.312
-73.222
-72.971
-72.572
-72.041
-71.392
-70.638
-69.794
-68.873
-67.888
-66.853
-65.781
-64.682
-63.569
-62.453
-61.344
-60.252
-59.186
-58.155
-57.165
-56.225
-55.339
-54.514
-53.754
-53.064
-52.447
-51.905
-51.441
-51.056
-50.752
-50.529
-50.386
-50.325
-50.342
-50.438
-50.609
-50.854
-51.169
-51.55
-51.993
-52.494
-53.049
-53.652
-54.298
-54.98
-55.693
-56.431
-57.188
-57.955
-58.726
-59.493
-60.25
-60.989
-61.703
-62.385
-63.027
-63.623
-64.167
-64.652
-65.072
-65.42
-65.692
-65.882
-65.986
-66
-65.92
-65.743
-65.468
-65.093
-64.621
-64.054
-63.393
-62.641
-61.803
-60.883
-59.887
-58.82
-57.685
-56.487
-55.232
-53.928
-52.585
-51.212
-49.818
-48.411
-47.003
-45.602
-44.218
-42.859
-41.525
-40.22
-38.951
-37.73
-36.57
-35.485
-34.479
-33.557
-32.723
-31.977
-31.312
-30.714
-30.158
-29.622
-29.089
-28.553
-28.009
-27.45
-26.865
-26.237
-25.543
-24.774
-23.925
-22.989
-21.973
-20.907
-19.828
-18.81
-17.942
-17.291
-16.926
-16.914
-17.308
-18.18
-19.588
-21.56
-24.139
-27.376
-31.269
-35.783
-40.773
-45.934
-50.966
-55.586
-59.444
-62.186
-63.542
-63.333
-61.673
-59.084
-56.097
-53.128
-50.743
-49.546
-49.996
-52.569
-56.729
-60.404
-61.529
-57.994
-49.104
-36.916
-23.162
-8.794
7.674
32.46
72.111
131.914
213.521
310.175
410.514
499.928
562.357
588.026
570.802
508.67
405.993
266.208
97.492
-85.356
-265.972
-421.8
-533.838
-594.271
-603.802
-574.826
-523.845
-464.101
-405.441
-352.552
-307.131
-268.825
-235.915
-205.635
-174.332
-141.189
-107.503
-75.873
-50.173
-31.644
-19.268
-11.561
-6.407
-2.776
-0.716
-0.059
-0.412
-1.284
-2.219
-2.878
-3.166
-2.964
-1.927
0.076
2.839
6.059
9.391
12.449
15.111
17.332
18.886
19.714
19.979
19.901
19.851
20.272
21.365
23.216
25.958
29.593
34.032
39.167
44.755
50.493
56.202
61.761
67.068
72.105
76.848
81.268
85.39
89.253
92.885
96.32
99.577
102.665
105.611
108.456
111.246
114.038
116.873
119.775
122.764
125.846
129.027
132.306
135.677
139.122
142.626
146.174
149.751
153.35
156.952
160.539
164.086
167.568
170.961
174.246
177.402
180.41
183.251
185.906
188.359
190.595
192.599
194.353
195.841
197.043
197.945
198.532
198.79
198.708
198.274
197.48
196.32
194.791
192.889
190.615
187.97
184.957
181.582
177.853
173.78
169.375
164.649
159.619
154.301
148.714
142.878
136.812
130.539
124.08
117.461
110.704
103.836
96.88
89.862
82.807
75.742
68.691
61.68
54.732
47.87
41.119
34.5
28.033
21.738
15.632
9.733
4.055
-1.388
-6.585
-11.524
-16.199
-20.601
-24.725
-28.569
-32.128
-35.404
-38.396
-41.108
-43.541
-45.702
-47.595
-49.229
-50.612
-51.751
-52.658
-53.344
-53.819
-54.096
-54.188
-54.108
-53.868
-53.483
-52.967
-52.334
-51.598
-50.772
-49.872
-48.909
-47.899
-46.854
-45.785
-44.706
-43.627
-42.56
-41.514
-40.499
-39.524
-38.597
-37.726
-36.917
-36.177
-35.512
-34.925
-34.42
-34.001
-33.669
-33.427
-33.275
-33.214
-33.242
-33.36
-33.564
-33.854
-34.225
-34.673
-35.193
-35.781
-36.429
-37.133
-37.886
-38.68
-39.507
-40.362
-41.236
-42.121
-43.008
-43.889
-44.757
-45.602
-46.415
-47.189
-47.914
-48.584
-49.189
-49.726
-50.186
-50.563
-50.852
-51.047
-51.145
-51.142
-51.037
-50.825
-50.506
-50.08
-49.55
-48.923
-48.203
-47.394
-46.503
-45.536
-44.504
-43.418
-42.286
-41.114
-39.911
-38.685
-37.449
-36.215
-34.994
-33.797
-32.633
-31.51
-30.443
-29.44
-28.51
-27.661
-26.888
-26.195
-25.584
-25.062
-24.644
-24.345
-24.165
-24.11
-24.17
-24.324
-24.583
-24.947
-25.359
-25.783
-26.164
-26.435
-26.639
-26.836
-26.986
-27.07
-27.138
-27.199
-27.398
-27.909
-28.652
-29.559
-30.633
-31.831
-33.133
-34.579
-35.968
-37.112
-38.149
-39.178
-40.398
-42.097
-44.394
-47.358
-51.222
-56.043
-61.548
-67.483
-73.319
-78.418
-82.365
-84.778
-85.322
-84.09
-81.529
-78.107
-74.654
-72.126
-71.267
-72.853
-76.93
-82.106
-86.447
-87.826
-85.076
-79.075
-71.044
-61.31
-47.709
-25.359
11.99
69.377
147.483
243.057
346.847
445.751
527.096
577.383
587.729
553.817
472.933
348.384
186.31
-2.348
-197.974
-378.864
-523.041
-614.944
-653.495
-647.387
-611.983
-562.769
-507.941
-451.368
-394.502
-338.974
-287.97
-243.442
-205.163
-170.679
-138.172
-107.854
-81.675
-62.642
-51.473
-46.891
-46.715
-48.012
-49.089
-49.133
-47.406
-43.904
-38.902
-32.683
-25.889
-19.203
-13.114
-8.182
-4.867
-3.217
-3.063
-4.092
-5.865
-7.99
-10.104
-11.813
-12.765
-12.777
-11.795
-9.85
-7.031
-3.417
0.9
5.8
11.128
16.73
22.483
28.269
34.004
39.619
45.029
50.174
55.018
59.544
63.752
67.657
71.27
74.608
77.708
80.603
83.341
85.973
88.551
91.13
93.755
96.457
99.26
102.18
105.222
108.387
111.666
115.044
118.505
122.039
125.628
129.259
132.916
136.577
140.221
143.824
147.361
150.811
154.155
157.372
160.442
163.347
166.07
168.595
170.906
172.986
174.816
176.377
177.651
178.623
179.277
179.598
179.574
179.194
178.451
177.338
175.852
173.989
171.751
169.139
166.157
162.811
159.11
155.062
150.68
145.977
140.969
135.673
130.107
124.292
118.248
111.998
105.563
98.969
92.239
85.399
78.473
71.488
64.47
57.443
50.435
43.47
36.574
29.769
23.08
16.529
10.135
3.92
-2.1
-7.907
-13.486
-18.824
-23.909
-28.73
-33.279
-37.549
-41.534
-45.23
-48.635
-51.747
-54.569
-57.1
-59.346
-61.309
-62.997
-64.416
-65.574
-66.481
-67.145
-67.577
-67.79
-67.795
-67.605
-67.233
-66.693
-65.999
-65.165
-64.207
-63.138
-61.973
-60.727
-59.413
-58.046
-56.639
-55.204
-53.755
-52.304
-50.862
-49.441
-48.051
-46.701
-45.401
-44.158
-42.981
-41.876
-40.85
-39.906
-39.051
-38.287
-37.617
-37.045
-36.571
-36.196
-35.92
-35.741
-35.66
-35.672
-35.775
-35.963
-36.233
-36.577
-36.991
-37.467
-37.998
-38.577
-39.196
-39.845
-40.517
-41.203
-41.891
-42.574
-43.241
-43.882
-44.489
-45.051
-45.559
-46.005
-46.378
-46.673
-46.882
-46.997
-47.012
-46.921
-46.719
-46.403
-45.969
-45.415
-44.741
-43.945
-43.032
-42.006
-40.872
-39.637
-38.306
-36.889
-35.396
-33.835
-32.217
-30.548
-28.839
-27.101
-25.346
-23.587
-21.839
-20.113
-18.422
-16.782
-15.206
-13.705
-12.289
-10.962
-9.729
-8.601
-7.587
-6.705
-5.965
-5.373
-4.935
-4.655
-4.529
-4.553
-4.71
-4.97
-5.313
-5.72
-6.178
-6.679
-7.209
-7.748
-8.279
-8.783
-9.242
-9.644
-9.981
-10.254
-10.49
-10.728
-11.021
-11.44
-12.045
-12.902
-14.08
-15.643
-17.658
-20.168
-23.208
-26.833
-31.062
-35.885
-41.219
-46.833
-52.442
-57.776
-62.507
-66.265
-68.77
-69.788
-69.28
-67.631
-65.319
-62.812
-60.783
-59.941
-60.825
-63.99
-69.204
-74.89
-79.236
-80.246
-76.726
-69.348
-59.072
-46.17
-28.884
-3.284
35.809
92.583
167.247
257.092
354.66
448.814
528.608
581.211
596.126
566.946
489.421
365.981
203.964
15.867
-178.441
-357.927
-502.277
-597.214
-641.308
-640.844
-608.862
-560.957
-506.297
-451.779
-401.108
-352.833
-306.998
-262.119
-215.404
-168.15
-122.395
-81.062
-48.372
-25.403
-11.081
-3.711
-0.817
-0.921
-3.224
-6.779
-10.806
-14.526
-17.426
-19.328
-19.96
-19.058
-16.648
-12.931
-8.241
-3.07
2.289
7.611
12.416
16.313
19.171
20.981
21.94
22.398
22.596
22.816
23.506
24.981
27.381
30.765
35.005
39.901
45.301
50.985
56.692
62.242
67.515
72.444
77.039
81.314
85.268
88.928
92.33
95.5
98.473
101.27
103.914
106.444
108.91
111.371
113.876
116.458
119.14
121.934
124.847
127.881
131.031
134.283
137.626
141.047
144.537
148.085
151.677
155.293
158.911
162.505
166.048
169.519
172.896
176.156
179.279
182.244
185.033
187.63
190.017
192.173
194.08
195.716
197.062
198.102
198.818
199.195
199.219
198.878
198.163
197.068
195.587
193.717
191.457
188.807
185.771
182.354
178.564
174.41
169.904
165.059
159.892
154.419
148.66
142.636
136.367
129.876
123.187
116.325
109.313
102.178
94.945
87.64
80.29
72.92
65.556
58.223
50.946
43.749
36.655
29.685
22.861
16.202
9.725
3.447
-2.616
-8.452
-14.048
-19.395
-24.483
-29.306
-33.858
-38.137
-42.14
-45.867
-49.319
-52.498
-55.408
-58.053
-60.439
-62.574
-64.465
-66.12
-67.548
-68.761
-69.767
-70.579
-71.209
-71.667
-71.966
-72.118
-72.135
-72.031
-71.817
-71.505
-71.109
-70.639
-70.109
-69.528
-68.909
-68.262
-67.598
-66.925
-66.252
-65.588
-64.941
-64.317
-63.724
-63.166
-62.65
-62.179
-61.758
-61.391
-61.08
-60.828
-60.635
-60.503
-60.434
-60.426
-60.479
-60.591
-60.76
-60.986
-61.264
-61.592
-61.966
-62.381
-62.833
-63.317
-63.826
-64.356
-64.898
-65.446
-65.993
-66.531
-67.055
-67.554
-68.023
-68.452
-68.835
-69.166
-69.436
-69.64
-69.769
-69.819
-69.783
-69.659
-69.442
-69.127
-68.713
-68.198
-67.583
-66.87
-66.061
-65.157
-64.161
-63.078
-61.914
-60.672
-59.358
-57.975
-56.531
-55.034
-53.496
-51.925
-50.333
-48.729
-47.125
-45.536
-43.973
-42.446
-40.96
-39.521
-38.138
-36.826
-35.601
-34.473
-33.447
-32.526
-31.715
-31.012
-30.415
-29.907
-29.459
-29.051
-28.669
-28.307
-27.967
-27.639
-27.306
-26.954
-26.567
-26.145
-25.695
-25.215
-24.704
-24.185
-23.706
-23.339
-23.18
-23.294
-23.718
-24.499
-25.679
-27.32
-29.483
-32.207
-35.491
-39.335
-43.761
-48.769
-54.307
-60.187
-66.096
-71.696
-76.68
-80.741
-83.547
-84.813
-84.366
-82.325
-79.112
-75.189
-71.097
-67.475
-64.96
-64.206
-65.298
-67.319
-68.946
-68.556
-65.368
-59.938
-52.741
-43.999
-31.998
-13.012
17.522
64.11
128.114
207.962
297.157
385
460.294
510.218
526.206
503.883
440.963
341.149
208.143
48.883
-123.335
-293.684
-441.979
-550.345
-610.504
-622.216
-596.166
-547.69
-490.138
-433.66
-383.39
-341.094
-305.787
-275.208
-246.338
-215.546
-182.246
-147.884
-114.966
-87.231
-66.044
-50.651
-39.799
-31.682
-25.408
-21.002
-18.494
-17.606
-17.701
-18.219
-18.779
-19.177
-19.377
-19.182
-18.219
-16.487
-14.297
-11.929
-9.748
-7.915
-6.305
-4.953
-4.057
-3.583
-3.353
-3.098
-2.367
-0.924
1.22
4.099
7.759
12.146
17.189
22.702
28.362
33.959
39.39
44.568
49.469
54.075
58.348
62.301
65.986
69.445
72.72
75.845
78.829
81.702
84.506
87.29
90.115
93.025
96.044
99.19
102.472
105.891
109.451
113.142
116.945
120.843
124.817
128.85
132.931
137.042
141.16
145.26
149.313
153.292
157.173
160.935
164.555
168.009
171.275
174.334
177.167
179.757
182.081
184.121
185.854
187.261
188.326
189.033
189.368
189.317
188.871
188.023
186.768
185.103
183.028
180.544
177.656
174.37
170.694
166.64
162.22
157.45
152.345
146.926
141.212
135.225
128.99
122.529
115.868
109.033
102.053
94.953
87.762
80.508
73.218
65.922
58.646
51.418
44.265
37.211
30.283
23.503
16.894
10.475
4.266
-1.717
-7.458
-12.943
-18.161
-23.103
-27.759
-32.125
-36.194
-39.966
-43.438
-46.612
-49.49
-52.076
-54.374
-56.393
-58.138
-59.619
-60.846
-61.83
-62.582
-63.114
-63.439
-63.571
-63.525
-63.313
-62.951
-62.455
-61.838
-61.115
-60.302
-59.413
-58.461
-57.461
-56.425
-55.367
-54.299
-53.231
-52.176
-51.144
-50.142
-49.181
-48.269
-47.411
-46.614
-45.883
-45.223
-44.637
-44.129
-43.701
-43.354
-43.09
-42.909
-42.809
-42.791
-42.852
-42.99
-43.201
-43.482
-43.829
-44.236
-44.698
-45.211
-45.766
-46.356
-46.977
-47.621
-48.282
-48.952
-49.624
-50.29
-50.941
-51.572
-52.174
-52.739
-53.258
-53.724
-54.128
-54.467
-54.737
-54.932
-55.046
-55.069
-54.995
-54.821
-54.545
-54.164
-53.676
-53.081
-52.381
-51.581
-50.693
-49.727
-48.692
-47.596
-46.441
-45.238
-44.002
-42.758
-41.533
-40.344
-39.194
-38.081
-37.008
-35.988
-35.05
-34.205
-33.425
-32.702
-32.066
-31.603
-31.421
-31.561
-31.951
-32.495
-33.165
-33.903
-34.595
-35.025
-34.881
-33.983
-32.377
-30.234
-27.71
-25.031
-22.491
-20.451
-19.394
-19.66
-21.334
-24.301
-28.343
-33.063
-37.954
-42.566
-46.405
-49.078
-50.369
-50.195
-48.671
-46.204
-43.39
-40.7
-38.546
-37.278
-37.193
-38.578
-41.535
-45.842
-50.983
-56.474
-61.915
-66.917
-71.079
-73.978
-75.326
-75.151
-73.874
-72.048
-70.237
-69.042
-68.994
-70.583
-74.145
-79.557
-86.26
-92.929
-97.209
-96.53
-88.339
-71.663
-48.439
-21.411
7.077
37.663
76.048
128.985
200.695
289.385
384.402
470.253
531.896
558.477
545.98
495.009
407.125
284
129.033
-48.489
-230.935
-395.661
-520.958
-594.427
-617.452
-600.066
-557.062
-502.101
-442.374
-384.094
-331.958
-287.049
-250.64
-219.963
-189.511
-157.922
-125.548
-95.043
-71.306
-55.613
-46.735
-42.891
-41.235
-40.065
-38.883
-37.034
-34.068
-29.967
-24.891
-19.173
-13.341
-7.862
-3.077
0.572
2.71
3.331
2.647
0.996
-1.187
-3.529
-5.725
-7.444
-8.384
-8.398
-7.438
-5.535
-2.785
0.725
4.909
9.661
14.844
20.328
25.986
31.692
37.354
42.889
48.222
53.307
58.112
62.623
66.843
70.788
74.476
77.934
81.195
84.286
87.244
90.112
92.938
95.778
98.671
101.646
104.723
107.911
111.213
114.628
118.145
121.742
125.403
129.109
132.841
136.588
140.328
144.042
147.706
151.292
154.779
158.144
161.366
164.423
167.295
169.964
172.411
174.622
176.582
178.274
179.68
180.784
181.57
182.025
182.136
181.89
181.279
180.295
178.932
177.19
175.066
172.563
169.684
166.434
162.821
158.856
154.548
149.913
144.964
139.719
134.196
128.415
122.397
116.166
109.743
103.153
96.42
89.571
82.631
75.626
68.581
61.523
54.478
47.47
40.524
33.666
26.918
20.303
13.842
7.555
1.461
-4.423
-10.082
-15.503
-20.672
-25.58
-30.217
-34.577
-38.653
-42.442
-45.941
-49.15
-52.069
-54.701
-57.048
-59.116
-60.911
-62.439
-63.709
-64.731
-65.514
-66.069
-66.407
-66.541
-66.482
-66.245
-65.842
-65.287
-64.593
-63.775
-62.845
-61.819
-60.709
-59.528
-58.291
-57.009
-55.695
-54.361
-53.017
-51.675
-50.345
-49.037
-47.759
-46.52
-45.328
-44.189
-43.111
-42.098
-41.155
-40.287
-39.497
-38.788
-38.161
-37.617
-37.158
-36.783
-36.492
-36.284
-36.156
-36.108
-36.135
-36.236
-36.405
-36.637
-36.928
-37.272
-37.664
-38.096
-38.562
-39.054
-39.567
-40.091
-40.621
-41.147
-41.661
-42.155
-42.62
-43.049
-43.433
-43.763
-44.034
-44.236
-44.364
-44.413
-44.377
-44.251
-44.031
-43.713
-43.296
-42.776
-42.154
-41.428
-40.599
-39.668
-38.639
-37.519
-36.313
-35.027
-33.669
-32.249
-30.776
-29.26
-27.71
-26.134
-24.541
-22.942
-21.348
-19.773
-18.228
-16.724
-15.274
-13.892
-12.589
-11.375
-10.256
-9.234
-8.313
-7.498
-6.796
-6.22
-5.78
-5.478
-5.319
-5.307
-5.438
-5.706
-6.096
-6.579
-7.134
-7.741
-8.385
-9.056
-9.741
-10.419
-11.075
-11.685
-12.231
-12.694
-13.061
-13.328
-13.513
-13.647
-13.774
-13.956
-14.249
-14.715
-15.424
-16.439
-17.825
-19.621
-21.861
-24.603
-27.878
-31.694
-35.97
-40.48
-44.943
-49.09
-52.609
-55.142
-56.409
-56.167
-54.422
-51.654
-48.451
-45.406
-43.299
-42.872
-44.722
-49.502
-56.783
-64.486
-70.357
-71.694
-67.12
-58.465
-47.366
-34.936
-20.025
4.243
45.699
110.73
201.854
311.493
425.219
525.415
594.322
622.249
606.707
549.323
454.537
324.612
163.095
-19.694
-206.281
-372.718
-496.49
-566.582
-585.562
-566.397
-526.214
-477.103
-424.597
-371.503
-318.803
-269.372
-226.651
-190.783
-160.242
-132.11
-104.43
-78.003
-55.089
-38.019
-27.205
-21.638
-19.444
-18.354
-17.27
-15.68
-13.249
-10.36
-7.347
-4.193
-1.092
1.658
3.884
5.289
5.802
5.851
5.796
5.745
5.682
5.614
5.657
6.014
6.777
7.768
8.832
10.025
11.577
13.686
16.41
19.706
23.483
27.737
32.468
37.547
42.77
47.95
52.948
57.702
62.213
66.46
70.423
74.117
77.571
80.826
83.931
86.914
89.798
92.616
95.408
98.223
101.106
104.085
107.18
110.4
113.748
117.221
120.811
124.5
128.272
132.114
136.007
139.936
143.884
147.832
151.757
155.635
159.437
163.14
166.721
170.159
173.434
176.525
179.413
182.08
184.51
186.684
188.581
190.184
191.473
192.433
193.047
193.302
193.185
192.687
191.801
190.522
188.846
186.773
184.305
181.443
178.194
174.566
170.567
166.211
161.511
156.481
151.14
145.506
139.601
133.446
127.064
120.479
113.716
106.801
99.76
92.619
85.407
78.149
70.874
63.609
56.38
49.214
42.135
35.169
28.339
21.667
15.174
8.879
2.799
-3.048
-8.649
-13.99
-19.062
-23.854
-28.359
-32.572
-36.487
-40.104
-43.419
-46.436
-49.155
-51.581
-53.718
-55.574
-57.155
-58.471
-59.531
-60.347
-60.93
-61.291
-61.446
-61.406
-61.186
-60.8
-60.263
-59.589
-58.795
-57.893
-56.9
-55.829
-54.695
-53.511
-52.291
-51.048
-49.793
-48.54
-47.299
-46.081
-44.895
-43.752
-42.66
-41.627
-40.659
-39.763
-38.944
-38.208
-37.556
-36.994
-36.523
-36.145
-35.86
-35.67
-35.573
-35.569
-35.656
-35.831
-36.092
-36.435
-36.856
-37.35
-37.912
-38.536
-39.217
-39.948
-40.721
-41.529
-42.364
-43.219
-44.088
-44.96
-45.829
-46.685
-47.52
-48.326
-49.094
-49.816
-50.483
-51.084
-51.613
-52.064
-52.431
-52.71
-52.895
-52.978
-52.952
-52.814
-52.559
-52.185
-51.688
-51.068
-50.324
-49.464
-48.495
-47.423
-46.258
-45.004
-43.665
-42.246
-40.756
-39.209
-37.623
-36.023
-34.42
-32.817
-31.22
-29.642
-28.096
-26.61
-25.185
-23.786
-22.43
-21.188
-20.124
-19.332
-18.815
-18.456
-18.209
-18.124
-18.131
-18.094
-17.851
-17.132
-15.914
-14.48
-12.975
-11.42
-9.954
-8.722
-7.936
-7.985
-8.882
-10.22
-11.754
-13.335
-14.8
-16.11
-17.103
-17.444
-17.178
-16.663
-16.169
-15.96
-16.147
-16.679
-17.702
-19.434
-21.851
-24.879
-28.346
-31.989
-35.808
-39.756
-43.543
-46.949
-49.79
-51.762
-52.857
-53.178
-52.617
-51.461
-50.226
-49.243
-48.898
-49.663
-51.666
-54.857
-59.274
-63.679
-65.73
-63.477
-54.89
-39.759
-20.889
-0.329
21.13
45.342
78.953
128.049
195.191
277.774
365.421
444.619
503.032
531.628
527.212
489.573
418.593
314.911
180.362
22.347
-142.793
-294.269
-411.957
-483.288
-509.833
-502.449
-474.416
-437.201
-395.031
-348.425
-299.796
-252.419
-210.432
-176.605
-148.917
-123.66
-98.753
-73.772
-51.06
-33.677
-22.111
-15.66
-12.789
-11.263
-10.03
-8.543
-6.098
-2.684
1.475
6.296
11.38
16.271
20.704
24.227
26.368
27.063
26.418
24.644
22.139
19.243
16.248
13.528
11.416
10.093
9.649
10.086
11.336
13.35
16.058
19.358
23.14
27.285
31.701
36.301
40.986
45.667
50.262
54.7
58.946
62.983
66.792
70.372
73.735
76.893
79.878
82.722
85.446
88.084
90.668
93.236
95.836
98.505
101.262
104.123
107.093
110.17
113.35
116.623
119.967
123.361
126.787
130.224
133.659
137.072
140.44
143.74
146.946
150.034
152.982
155.77
158.378
160.785
162.973
164.926
166.632
168.076
169.243
170.119
170.69
170.942
170.866
170.45
169.688
168.57
167.094
165.257
163.06
160.505
157.595
154.337
150.737
146.805
142.553
137.992
133.139
128.007
122.616
116.983
111.13
105.078
98.848
92.462
85.946
79.321
72.613
65.846
59.042
52.227
45.424
38.656
31.947
25.317
18.788
12.381
6.114
0.005
-5.929
-11.672
-17.212
-22.536
-27.633
-32.494
-37.11
-41.476
-45.586
-49.436
-53.025
-56.352
-59.417
-62.223
-64.771
-67.066
-69.115
-70.922
-72.495
-73.842
-74.972
-75.895
-76.62
-77.159
-77.522
-77.72
-77.765
-77.669
-77.443
-77.099
-76.649
-76.104
-75.475
-74.773
-74.01
-73.195
-72.339
-71.452
-70.543
-69.623
-68.698
-67.778
-66.87
-65.982
-65.121
-64.293
-63.504
-62.76
-62.065
-61.424
-60.842
-60.321
-59.864
-59.474
-59.153
-58.901
-58.718
-58.607
-58.565
-58.594
-58.691
-58.857
-59.089
-59.386
-59.746
-60.165
-60.641
-61.17
-61.747
-62.369
-63.03
-63.726
-64.45
-65.197
-65.963
-66.739
-67.521
-68.3
-69.071
-69.826
-70.557
-71.258
-71.921
-72.538
-73.103
-73.609
-74.052
-74.426
-74.726
-74.947
-75.086
-75.14
-75.104
-74.977
-74.757
-74.442
-74.032
-73.526
-72.928
-72.241
-71.47
-70.621
-69.7
-68.714
-67.671
-66.58
-65.448
-64.28
-63.084
-61.868
-60.641
-59.413
-58.193
-56.994
-55.827
-54.703
-53.632
-52.623
-51.683
-50.816
-50.025
-49.312
-48.681
-48.138
-47.698
-47.373
-47.17
-47.09
-47.134
-47.298
-47.575
-47.951
-48.401
-48.899
-49.421
-49.947
-50.468
-50.98
-51.479
-51.948
-52.359
-52.683
-52.916
-53.067
-53.147
-53.168
-53.138
-53.074
-53.041
-53.132
-53.426
-54.001
-54.909
-56.157
-57.776
-59.837
-62.365
-65.336
-68.632
-71.984
-75.136
-77.928
-80.161
-81.585
-82.022
-81.324
-79.574
-77.26
-74.935
-73.058
-72.071
-72.386
-74.244
-77.752
-82.807
-88.193
-91.76
-91.585
-85.618
-73.174
-56.344
-36.653
-15.009
8.513
38.573
79.709
133.926
202.207
278.17
350.948
409.797
442.193
440.228
401.655
326.343
218.416
84.786
-64.648
-214.851
-348.361
-448.687
-505.907
-520.422
-499.824
-456.939
-404.513
-350.099
-299.892
-257.225
-221.657
-193.201
-169.039
-145.129
-121.107
-97.525
-76.498
-61.45
-52.817
-49.38
-49.509
-50.703
-51.54
-51.556
-50.21
-47.495
-43.695
-39.004
-33.816
-28.652
-23.914
-20.016
-17.384
-16.07
-15.859
-16.538
-17.804
-19.374
-21.04
-22.479
-23.345
-23.476
-22.819
-21.384
-19.257
-16.478
-13.063
-9.113
-4.752
-0.116
4.64
9.439
14.247
19.017
23.71
28.27
32.643
36.817
40.807
44.617
48.253
51.714
54.998
58.138
61.179
64.168
67.16
70.19
73.274
76.435
79.684
83.03
86.477
90.017
93.627
97.296
101.014
104.771
108.558
112.359
116.153
119.919
123.636
127.282
130.838
134.284
137.599
140.766
143.769
146.593
149.227
151.655
153.862
155.834
157.556
159.011
160.187
161.071
161.649
161.913
161.852
161.461
160.736
159.672
158.269
156.527
154.449
152.037
149.297
146.236
142.863
139.189
135.225
130.985
126.483
121.737
116.763
111.58
106.208
100.667
94.979
89.163
83.243
77.24
71.177
65.078
58.963
52.857
46.78
40.755
34.803
28.945
23.198
17.583
12.115
6.81
1.684
-3.251
-7.983
-12.501
-16.796
-20.86
-24.687
-28.271
-31.609
-34.699
-37.539
-40.13
-42.472
-44.57
-46.426
-48.046
-49.435
-50.6
-51.55
-52.291
-52.835
-53.19
-53.367
-53.378
-53.232
-52.942
-52.519
-51.976
-51.323
-50.574
-49.739
-48.83
-47.858
-46.834
-45.769
-44.674
-43.558
-42.431
-41.302
-40.18
-39.074
-37.99
-36.936
-35.92
-34.947
-34.023
-33.154
-32.343
-31.595
-30.912
-30.299
-29.756
-29.285
-28.888
-28.564
-28.314
-28.137
-28.032
-27.998
-28.033
-28.134
-28.299
-28.525
-28.808
-29.146
-29.533
-29.965
-30.438
-30.946
-31.483
-32.044
-32.621
-33.208
-33.8
-34.392
-34.975
-35.544
-36.091
-36.61
-37.095
-37.539
-37.934
-38.272
-38.548
-38.753
-38.886
-38.942
-38.919
-38.812
-38.615
-38.324
-37.935
-37.446
-36.855
-36.16
-35.358
-34.451
-33.445
-32.348
-31.172
-29.922
-28.604
-27.224
-25.783
-24.295
-22.774
-21.236
-19.703
-18.185
-16.682
-15.201
-13.755
-12.356
-11.03
-9.773
-8.544
-7.367
-6.316
-5.453
-4.87
-4.561
-4.397
-4.34
-4.449
-4.652
-4.81
-4.755
-4.208
-3.161
-1.923
-0.638
0.667
1.858
2.812
3.314
2.964
1.75
0.072
-1.822
-3.74
-5.491
-7.062
-8.315
-8.955
-9.015
-8.745
-8.326
-8.024
-8.038
-8.327
-8.96
-10.023
-11.438
-13.311
-15.756
-18.68
-22.004
-25.668
-29.493
-33.448
-37.516
-41.246
-44.24
-46.288
-47.245
-47.348
-46.988
-46.328
-45.575
-45.261
-45.792
-47.46
-50.544
-54.067
-55.953
-54.45
-47.666
-35.231
-19.992
-3.942
12.389
30.201
56.368
97.357
155.536
230.629
313.846
392.683
456.637
494.625
501.22
474.462
411.223
312.49
180.707
23.119
-142.63
-296.196
-417.392
-491.8
-520.085
-511.663
-478.954
-434.901
-385.163
-331.832
-278.955
-229.827
-188.067
-155.816
-130.212
-107.284
-85.061
-63.391
-44.809
-32.259
-26.039
-24.958
-26.721
-28.679
-29.507
-28.581
-25.733
-21.385
-15.93
-9.736
-3.438
2.372
7.171
10.422
12.02
12.193
11.22
9.467
7.286
4.969
2.873
1.381
0.687
0.859
1.89
3.701
6.243
9.491
13.361
17.733
22.479
27.458
32.548
37.682
42.797
47.831
52.724
57.422
61.893
66.138
70.167
73.987
77.602
81.017
84.251
87.34
90.33
93.27
96.212
99.189
102.228
105.349
108.567
111.888
115.313
118.829
122.416
126.061
129.752
133.477
137.224
140.973
144.705
148.397
152.026
155.57
159.007
162.316
165.475
168.467
171.274
173.88
176.27
178.43
180.343
181.992
183.362
184.435
185.199
185.638
185.741
185.497
184.896
183.933
182.604
180.906
178.838
176.402
173.601
170.44
166.927
163.07
158.88
154.369
149.552
144.445
139.064
133.43
127.561
121.481
115.21
108.772
102.19
95.489
88.692
81.826
74.915
67.984
61.058
54.161
47.319
40.555
33.892
27.351
20.953
14.718
8.663
2.805
-2.842
-8.263
-13.448
-18.386
-23.067
-27.486
-31.636
-35.513
-39.115
-42.442
-45.493
-48.27
-50.777
-53.018
-54.999
-56.727
-58.208
-59.451
-60.467
-61.264
-61.854
-62.248
-62.457
-62.494
-62.372
-62.102
-61.698
-61.173
-60.538
-59.806
-58.99
-58.1
-57.148
-56.145
-55.1
-54.025
-52.927
-51.816
-50.699
-49.584
-48.478
-47.388
-46.319
-45.276
-44.264
-43.288
-42.351
-41.457
-40.608
-39.807
-39.057
-38.36
-37.716
-37.126
-36.593
-36.116
-35.695
-35.332
-35.024
-34.773
-34.578
-34.438
-34.353
-34.321
-34.341
-34.413
-34.536
-34.708
-34.928
-35.195
-35.507
-35.862
-36.258
-36.694
-37.165
-37.67
-38.204
-38.765
-39.349
-39.953
-40.571
-41.2
-41.835
-42.47
-43.102
-43.724
-44.331
-44.916
-45.475
-46.001
-46.489
-46.932
-47.325
-47.662
-47.938
-48.15
-48.291
-48.358
-48.346
-48.251
-48.072
-47.807
-47.452
-47.006
-46.471
-45.848
-45.14
-44.353
-43.489
-42.554
-41.555
-40.499
-39.394
-38.247
-37.062
-35.847
-34.61
-33.361
-32.111
-30.87
-29.647
-28.452
-27.297
-26.193
-25.149
-24.17
-23.258
-22.417
-21.654
-20.976
-20.397
-19.926
-19.567
-19.326
-19.205
-19.201
-19.308
-19.511
-19.784
-20.105
-20.459
-20.834
-21.224
-21.614
-21.99
-22.337
-22.638
-22.876
-23.04
-23.121
-23.123
-23.07
-23
-22.961
-23.02
-23.235
-23.67
-24.389
-25.455
-26.936
-28.878
-31.318
-34.316
-37.89
-42.031
-46.669
-51.592
-56.511
-61.15
-65.189
-68.26
-70.11
-70.545
-69.533
-67.428
-64.784
-62.16
-60.181
-59.547
-60.799
-64.273
-70.166
-77.406
-83.607
-86.597
-83.97
-74.692
-60.991
-44.262
-24.693
-1.263
32.421
82.311
150.541
237.167
333.719
427.023
504.438
551.35
558.97
524.22
445.877
329.091
179.759
5.926
-176.905
-351.589
-497.401
-595.909
-641.703
-638.541
-600.105
-544.598
-483.846
-425.535
-372.685
-324.835
-282.436
-244.825
-210.107
-176.202
-142.243
-109.271
-79.831
-57.044
-41.631
-32.38
-27.494
-24.672
-22.555
-20.736
-18.801
-16.481
-13.917
-11.201
-8.346
-5.614
-3.291
-1.483
-0.327
0.107
0.199
0.199
0.034
-0.131
-0.099
0.214
1.023
2.426
4.205
6.341
9.052
12.38
16.35
20.958
26.021
31.433
37.212
43.234
49.295
55.252
60.959
66.336
71.401
76.143
80.533
84.586
88.328
91.797
95.052
98.125
101.046
103.852
106.591
109.319
112.086
114.924
117.855
120.891
124.034
127.286
130.64
134.078
137.588
141.153
144.759
148.395
152.048
155.697
159.326
162.909
166.423
169.848
173.163
176.348
179.386
182.258
184.947
187.438
189.717
191.765
193.565
195.1
196.351
197.304
197.942
198.252
198.222
197.841
197.101
195.998
194.526
192.684
190.471
187.889
184.941
181.632
177.97
173.964
169.625
164.966
160.001
154.747
149.222
143.445
137.436
131.216
124.809
118.236
111.522
104.692
97.77
90.781
83.75
76.703
69.665
62.66
55.712
48.845
42.08
35.44
28.944
22.61
16.457
10.501
4.754
-0.768
-6.056
-11.099
-15.889
-20.419
-24.685
-28.681
-32.408
-35.863
-39.049
-41.966
-44.62
-47.014
-49.155
-51.05
-52.707
-54.134
-55.343
-56.342
-57.144
-57.759
-58.201
-58.482
-58.614
-58.611
-58.484
-58.247
-57.912
-57.492
-56.999
-56.444
-55.839
-55.194
-54.52
-53.826
-53.123
-52.418
-51.72
-51.036
-50.373
-49.737
-49.133
-48.568
-48.045
-47.568
-47.141
-46.765
-46.445
-46.18
-45.973
-45.824
-45.734
-45.704
-45.732
-45.819
-45.963
-46.163
-46.419
-46.729
-47.091
-47.503
-47.964
-48.471
-49.023
-49.617
-50.25
-50.92
-51.624
-52.359
-53.122
-53.91
-54.718
-55.542
-56.378
-57.223
-58.071
-58.919
-59.76
-60.59
-61.403
-62.196
-62.962
-63.695
-64.39
-65.04
-65.64
-66.185
-66.668
-67.084
-67.426
-67.689
-67.868
-67.959
-67.957
-67.857
-67.656
-67.349
-66.936
-66.414
-65.783
-65.04
-64.188
-63.227
-62.163
-61.002
-59.746
-58.404
-56.981
-55.488
-53.932
-52.323
-50.667
-48.973
-47.249
-45.507
-43.76
-42.019
-40.296
-38.601
-36.949
-35.352
-33.821
-32.365
-30.987
-29.694
-28.492
-27.392
-26.411
-25.559
-24.843
-24.266
-23.834
-23.544
-23.392
-23.361
-23.426
-23.563
-23.753
-23.986
-24.255
-24.548
-24.85
-25.14
-25.394
-25.596
-25.737
-25.806
-25.804
-25.753
-25.688
-25.676
-25.802
-26.126
-26.715
-27.628
-28.919
-30.659
-32.906
-35.692
-39.061
-43.065
-47.715
-52.986
-58.74
-64.667
-70.448
-75.77
-80.261
-83.547
-85.334
-85.42
-83.908
-81.349
-78.35
-75.436
-73.279
-72.553
-73.76
-77.394
-82.891
-88.147
-91.065
-89.424
-82.309
-71.342
-57.65
-41.695
-21.933
7.026
50.638
113.163
195.606
292.43
393.363
484.558
551.355
582.707
571.769
516.571
418.733
281.013
110.004
-82.362
-277.898
-452.117
-582.445
-655.536
-670.771
-641.018
-585.074
-519.658
-455.955
-398.012
-345.914
-299.334
-257.426
-219.641
-185.038
-152.001
-120.686
-92.345
-68.893
-52.36
-42.521
-37.85
-36.52
-36.406
-36.355
-35.811
-34.164
-31.349
-27.588
-23.084
-18.246
-13.533
-9.295
-5.949
-3.906
-3.211
-3.651
-4.957
-6.75
-8.661
-10.4
-11.628
-12.012
-11.409
-9.795
-7.212
-3.784
0.38
5.189
10.497
16.138
21.96
27.811
33.595
39.252
44.708
49.901
54.788
59.335
63.547
67.443
71.037
74.353
77.423
80.276
82.964
85.538
88.053
90.569
93.13
95.766
98.505
101.363
104.348
107.465
110.707
114.057
117.504
121.036
124.64
128.303
132.01
135.74
139.475
143.19
146.864
150.476
154.007
157.437
160.747
163.92
166.937
169.784
172.444
174.899
177.129
179.115
180.839
182.283
183.43
184.265
184.774
184.944
184.765
184.23
183.334
182.07
180.438
178.436
176.066
173.331
170.237
166.791
163.003
158.884
154.446
149.706
144.679
139.385
133.841
128.069
122.09
115.926
109.602
103.142
96.57
89.913
83.194
76.442
69.68
62.935
56.231
49.593
43.045
36.609
30.305
24.155
18.177
12.388
6.805
1.441
-3.691
-8.579
-13.213
-17.585
-21.689
-25.52
-29.073
-32.349
-35.345
-38.063
-40.506
-42.676
-44.581
-46.224
-47.614
-48.76
-49.669
-50.354
-50.824
-51.091
-51.168
-51.067
-50.801
-50.384
-49.828
-49.148
-48.356
-47.466
-46.49
-45.441
-44.331
-43.173
-41.978
-40.756
-39.519
-38.277
-37.039
-35.813
-34.61
-33.435
-32.297
-31.202
-30.156
-29.165
-28.234
-27.367
-26.567
-25.839
-25.185
-24.607
-24.108
-23.687
-23.346
-23.085
-22.905
-22.804
-22.782
-22.837
-22.968
-23.174
-23.452
-23.8
-24.216
-24.696
-25.237
-25.836
-26.489
-27.19
-27.936
-28.721
-29.541
-30.39
-31.262
-32.151
-33.051
-33.956
-34.859
-35.754
-36.632
-37.487
-38.311
-39.097
-39.837
-40.524
-41.152
-41.711
-42.197
-42.603
-42.922
-43.15
-43.28
-43.308
-43.23
-43.042
-42.742
-42.328
-41.799
-41.155
-40.397
-39.531
-38.56
-37.489
-36.323
-35.07
-33.737
-32.333
-30.866
-29.343
-27.772
-26.162
-24.527
-22.878
-21.229
-19.593
-17.981
-16.407
-14.885
-13.43
-12.049
-10.748
-9.532
-8.41
-7.394
-6.5
-5.739
-5.114
-4.629
-4.286
-4.085
-4.02
-4.072
-4.213
-4.42
-4.674
-4.967
-5.296
-5.65
-6.011
-6.361
-6.681
-6.962
-7.206
-7.398
-7.532
-7.628
-7.723
-7.881
-8.188
-8.7
-9.461
-10.529
-11.951
-13.793
-16.122
-18.959
-22.326
-26.26
-30.762
-35.825
-41.369
-47.13
-52.804
-58.093
-62.632
-66.081
-68.186
-68.699
-67.584
-65.244
-62.162
-58.842
-55.998
-54.267
-54.107
-56.041
-59.838
-64.031
-67.02
-66.888
-62.313
-53.523
-40.975
-24.995
-4.537
22.671
60.211
112.146
179.629
261.877
353.116
442.03
516.709
563.654
572.806
539.678
462.057
343.287
189.418
10.312
-176.525
-351.643
-494.068
-587.568
-629.167
-624.643
-588.126
-536.512
-480.413
-426.865
-378.664
-335.419
-297.218
-262.642
-229.444
-195.705
-160.793
-126.193
-94.541
-68.619
-49.338
-35.762
-26.238
-19.024
-13.343
-9.046
-6.142
-4.565
-3.851
-3.712
-4.077
-4.685
-5.392
-6.048
-6.204
-5.677
-4.642
-3.107
-1.176
0.821
2.843
4.825
6.451
7.666
8.605
9.336
10.14
11.407
13.262
15.796
19.154
23.288
28.11
33.527
39.28
45.085
50.779
56.232
61.371
66.194
70.684
74.832
78.678
82.272
85.66
88.884
91.962
94.912
97.767
100.574
103.389
106.262
109.221
112.285
115.461
118.753
122.162
125.68
129.288
132.968
136.702
140.473
144.272
148.083
151.885
155.654
159.365
162.99
166.509
169.901
173.144
176.217
179.102
181.779
184.234
186.45
188.41
190.094
191.483
192.562
193.314
193.725
193.782
193.473
192.79
191.726
190.276
188.438
186.211
183.596
180.596
177.217
173.467
169.355
164.892
160.093
154.971
149.544
143.832
137.853
131.628
125.181
118.535
111.714
104.744
97.65
90.459
83.197
75.89
68.565
61.249
53.967
46.745
39.607
32.577
25.679
18.934
12.362
5.982
-0.189
-6.135
-11.84
-17.293
-22.483
-27.399
-32.035
-36.384
-40.441
-44.203
-47.669
-50.84
-53.716
-56.301
-58.599
-60.616
-62.359
-63.836
-65.055
-66.028
-66.765
-67.276
-67.575
-67.673
-67.583
-67.32
-66.896
-66.325
-65.621
-64.797
-63.868
-62.848
-61.749
-60.585
-59.368
-58.112
-56.827
-55.527
-54.221
-52.92
-51.635
-50.375
-49.148
-47.965
-46.831
-45.754
-44.74
-43.796
-42.925
-42.133
-41.423
-40.798
-40.261
-39.814
-39.457
-39.193
-39.022
-38.943
-38.957
-39.061
-39.255
-39.536
-39.9
-40.346
-40.867
-41.46
-42.121
-42.844
-43.623
-44.452
-45.326
-46.237
-47.178
-48.143
-49.122
-50.107
-51.09
-52.063
-53.018
-53.945
-54.838
-55.688
-56.488
-57.23
-57.907
-58.511
-59.035
-59.473
-59.82
-60.069
-60.216
-60.259
-60.194
-60.022
-59.745
-59.362
-58.877
-58.289
-57.604
-56.831
-55.977
-55.051
-54.058
-53.005
-51.899
-50.752
-49.573
-48.371
-47.154
-45.928
-44.704
-43.495
-42.315
-41.181
-40.096
-39.054
-38.052
-37.084
-36.158
-35.302
-34.533
-33.855
-33.274
-32.781
-32.386
-32.134
-31.997
-31.879
-31.703
-31.367
-30.864
-30.326
-29.792
-29.202
-28.619
-28.162
-27.973
-28.304
-29.149
-30.206
-31.334
-32.531
-33.701
-34.773
-35.594
-35.843
-35.573
-35.228
-35.101
-35.367
-36.222
-37.782
-40.234
-43.903
-48.729
-54.198
-59.859
-65.334
-70.234
-74.255
-77.11
-78.429
-78.199
-76.983
-75.339
-73.751
-72.814
-72.997
-74.639
-78.19
-83.279
-88.094
-90.668
-89.021
-82.16
-71.35
-58.222
-43.254
-24.842
0.979
39.557
94.456
165.306
248.854
336.813
418.319
483.274
520.546
522.789
486.275
408.46
291.796
141.341
-33.078
-213.612
-379.805
-510.521
-590.993
-619.797
-604.63
-560.782
-504.43
-445.523
-390.857
-342.725
-300.859
-265.397
-234.156
-204.577
-174.844
-144.369
-114.813
-88.981
-69.296
-56.051
-48.14
-43.858
-41.481
-40.355
-40.133
-40.154
-39.825
-38.847
-37.093
-34.686
-31.686
-27.947
-23.57
-19.011
-14.922
-11.672
-9.273
-7.627
-6.649
-6.37
-6.745
-7.427
-7.845
-7.61
-6.565
-4.672
-1.972
1.565
5.971
11.093
16.648
22.395
28.149
33.816
39.377
44.757
49.878
54.712
59.254
63.525
67.556
71.352
74.912
78.255
81.405
84.405
87.305
90.152
92.995
95.874
98.813
101.832
104.945
108.156
111.465
114.866
118.344
121.885
125.48
129.114
132.775
136.447
140.106
143.731
147.296
150.78
154.16
157.419
160.536
163.493
166.271
168.853
171.226
173.373
175.276
176.919
178.284
179.352
180.112
180.547
180.646
180.395
179.788
178.815
177.473
175.759
173.671
171.21
168.378
165.181
161.625
157.72
153.475
148.903
144.018
138.837
133.377
127.657
121.698
115.521
109.147
102.6
95.904
89.082
82.16
75.163
68.115
61.043
53.972
46.926
39.93
33.009
26.184
19.48
12.916
6.513
0.289
-5.738
-11.553
-17.142
-22.492
-27.591
-32.431
-37.003
-41.301
-45.319
-49.056
-52.508
-55.677
-58.562
-61.167
-63.494
-65.549
-67.338
-68.867
-70.145
-71.18
-71.981
-72.561
-72.928
-73.095
-73.075
-72.878
-72.519
-72.009
-71.363
-70.593
-69.712
-68.733
-67.669
-66.533
-65.337
-64.092
-62.811
-61.504
-60.182
-58.855
-57.533
-56.225
-54.938
-53.682
-52.464
-51.291
-50.17
-49.105
-48.102
-47.166
-46.3
-45.509
-44.794
-44.157
-43.602
-43.128
-42.736
-42.427
-42.2
-42.054
-41.988
-42
-42.086
-42.245
-42.472
-42.762
-43.112
-43.517
-43.972
-44.47
-45.007
-45.576
-46.17
-46.783
-47.408
-48.037
-48.662
-49.276
-49.871
-50.439
-50.972
-51.463
-51.905
-52.289
-52.611
-52.863
-53.04
-53.135
-53.143
-53.06
-52.882
-52.606
-52.23
-51.751
-51.17
-50.487
-49.707
-48.834
-47.87
-46.822
-45.695
-44.496
-43.233
-41.913
-40.543
-39.128
-37.679
-36.204
-34.716
-33.226
-31.744
-30.281
-28.849
-27.46
-26.124
-24.849
-23.637
-22.493
-21.425
-20.442
-19.561
-18.791
-18.137
-17.606
-17.199
-16.915
-16.748
-16.682
-16.688
-16.744
-16.83
-16.935
-17.053
-17.174
-17.282
-17.357
-17.376
-17.328
-17.202
-16.991
-16.692
-16.33
-15.941
-15.593
-15.375
-15.354
-15.594
-16.16
-17.11
-18.511
-20.423
-22.876
-25.908
-29.568
-33.869
-38.787
-44.189
-49.803
-55.33
-60.463
-64.841
-68.084
-69.874
-70.009
-68.601
-66.097
-63.005
-59.899
-57.474
-56.429
-57.479
-60.753
-65.213
-69.167
-70.606
-68.484
-63.427
-56.437
-48.002
-36.174
-16.486
16.939
69.331
141.821
231.97
331.68
428.991
512.011
567.362
586.34
564.382
499.087
394.437
254.468
86.823
-94.392
-273.445
-428.782
-541.745
-604.067
-616.124
-590.758
-544.808
-490.756
-437.348
-386.515
-337.644
-292.146
-250.692
-214.231
-182.673
-153.607
-126.166
-100.681
-78.351
-61.3
-49.666
-42.267
-37.68
-34.012
-30.271
-26.095
-21.034
-15.143
-8.735
-2.06
4.451
10.36
15.396
19.224
21.492
22.189
21.5
19.713
17.276
14.594
11.98
9.778
8.293
7.681
8.017
9.303
11.457
14.406
18.069
22.335
27.093
32.228
37.632
43.201
48.811
54.348
59.727
64.881
69.775
74.398
78.733
82.781
86.568
90.125
93.489
96.696
99.772
102.751
105.673
108.584
111.542
114.588
117.745
121.03
124.449
128.002
131.687
135.491
139.388
143.356
147.373
151.419
155.478
159.532
163.554
167.519
171.399
175.168
178.804
182.283
185.582
188.679
191.552
194.183
196.556
198.655
200.46
201.954
203.12
203.941
204.405
204.497
204.206
203.522
202.438
200.951
199.058
196.76
194.058
190.958
187.466
183.591
179.344
174.737
169.786
164.505
158.915
153.033
146.883
140.485
133.863
127.041
120.046
112.902
105.636
98.275
90.845
83.374
75.889
68.416
60.982
53.612
46.332
39.166
32.136
25.266
18.577
12.086
5.812
-0.228
-6.021
-11.553
-16.813
-21.792
-26.481
-30.875
-34.967
-38.756
-42.239
-45.417
-48.291
-50.863
-53.137
-55.119
-56.816
-58.235
-59.385
-60.275
-60.915
-61.318
-61.495
-61.458
-61.222
-60.799
-60.204
-59.451
-58.556
-57.533
-56.398
-55.165
-53.85
-52.466
-51.03
-49.555
-48.055
-46.544
-45.035
-43.541
-42.074
-40.645
-39.267
-37.948
-36.7
-35.53
-34.447
-33.458
-32.57
-31.788
-31.118
-30.563
-30.128
-29.815
-29.625
-29.56
-29.619
-29.802
-30.107
-30.53
-31.069
-31.717
-32.47
-33.321
-34.263
-35.289
-36.391
-37.557
-38.78
-40.049
-41.353
-42.68
-44.018
-45.355
-46.679
-47.978
-49.239
-50.449
-51.598
-52.674
-53.665
-54.562
-55.355
-56.033
-56.588
-57.011
-57.296
-57.438
-57.429
-57.267
-56.95
-56.476
-55.85
-55.074
-54.152
-53.089
-51.891
-50.568
-49.128
-47.581
-45.932
-44.193
-42.374
-40.489
-38.553
-36.582
-34.588
-32.587
-30.595
-28.627
-26.697
-24.815
-22.987
-21.221
-19.527
-17.919
-16.42
-15.043
-13.798
-12.693
-11.735
-10.925
-10.26
-9.726
-9.295
-8.945
-8.657
-8.422
-8.236
-8.09
-7.969
-7.849
-7.703
-7.514
-7.267
-6.95
-6.564
-6.126
-5.672
-5.268
-4.997
-4.934
-5.156
-5.731
-6.723
-8.204
-10.214
-12.802
-16.038
-19.945
-24.52
-29.695
-35.234
-40.86
-46.311
-51.221
-55.182
-57.878
-59.018
-58.56
-56.921
-54.592
-52.042
-49.966
-49.109
-50.077
-53.533
-59.103
-64.83
-68.74
-68.83
-64.419
-57.045
-47.636
-35.665
-17.995
10.926
56.497
121.849
205.744
303.724
407.279
505.101
585.889
636.667
647.598
613.004
529.751
401.605
235.551
42.941
-156.953
-343.331
-494.44
-593.521
-637.835
-634.191
-597.176
-543.663
-483.789
-423.531
-365.703
-311.318
-262.389
-219.725
-182.242
-147.633
-114.511
-83.318
-56.139
-35.971
-23.46
-17.219
-15.097
-14.446
-13.986
-13.587
-12.976
-11.926
-10.339
-8.108
-5.44
-2.736
-0.077
2.75
5.731
8.665
11.378
13.609
15.288
16.607
17.597
18.111
18.199
18.043
17.902
18.22
19.248
20.999
23.53
26.9
31.065
35.943
41.339
46.914
52.46
57.876
63.062
67.978
72.59
76.843
80.749
84.361
87.705
90.808
93.694
96.368
98.86
101.222
103.505
105.773
108.072
110.431
112.875
115.417
118.065
120.822
123.681
126.625
129.639
132.712
135.83
138.984
142.158
145.332
148.482
151.583
154.611
157.543
160.359
163.039
165.563
167.914
170.073
172.027
173.76
175.253
176.49
177.452
178.121
178.482
178.521
178.224
177.578
176.576
175.209
173.473
171.365
168.885
166.032
162.811
159.227
155.286
150.999
146.377
141.434
136.184
130.645
124.835
118.775
112.486
105.99
99.31
92.471
85.497
78.414
71.246
64.019
56.76
49.494
42.247
35.043
27.909
20.867
13.942
7.155
0.527
-5.923
-12.176
-18.217
-24.03
-29.602
-34.922
-39.98
-44.767
-49.277
-53.506
-57.451
-61.109
-64.482
-67.571
-70.38
-72.913
-75.176
-77.177
-78.922
-80.421
-81.684
-82.722
-83.545
-84.167
-84.599
-84.855
-84.949
-84.894
-84.705
-84.396
-83.981
-83.473
-82.888
-82.238
-81.537
-80.798
-80.034
-79.257
-78.479
-77.71
-76.96
-76.24
-75.557
-74.919
-74.333
-73.805
-73.34
-72.943
-72.617
-72.365
-72.19
-72.093
-72.074
-72.134
-72.271
-72.484
-72.769
-73.124
-73.543
-74.023
-74.558
-75.143
-75.771
-76.436
-77.131
-77.848
-78.578
-79.314
-80.045
-80.763
-81.459
-82.124
-82.748
-83.322
-83.839
-84.289
-84.665
-84.96
-85.168
-85.281
-85.294
-85.201
-84.999
-84.684
-84.254
-83.706
-83.041
-82.261
-81.369
-80.371
-79.272
-78.076
-76.792
-75.428
-73.993
-72.495
-70.941
-69.338
-67.699
-66.034
-64.357
-62.681
-61.018
-59.379
-57.78
-56.232
-54.748
-53.336
-51.999
-50.742
-49.574
-48.508
-47.562
-46.748
-46.07
-45.535
-45.146
-44.901
-44.796
-44.814
-44.926
-45.105
-45.332
-45.597
-45.893
-46.209
-46.525
-46.816
-47.052
-47.22
-47.307
-47.303
-47.211
-47.05
-46.855
-46.695
-46.656
-46.807
-47.227
-47.981
-49.13
-50.744
-52.872
-55.57
-58.917
-62.946
-67.644
-72.933
-78.61
-84.422
-90.127
-95.378
-99.748
-102.879
-104.489
-104.554
-103.378
-101.297
-98.748
-96.361
-94.846
-95.027
-97.191
-100.582
-104.076
-106.257
-106.511
-105.686
-103.596
-99.433
-90.764
-72.216
-40.199
8.276
74.856
156.343
249.846
349.946
447.617
534.485
598.147
626.214
609.903
542.365
424.7
264.339
73.657
-128.286
-321.15
-484.861
-603.16
-669.18
-685.008
-660.615
-610.233
-547.484
-482.508
-421.88
-369.153
-324.082
-285.004
-248.957
-212.051
-173.865
-136.123
-101.622
-74.206
-54.838
-42.085
-34.062
-28.462
-24.149
-21.043
-18.969
-17.671
-16.791
-16.129
-15.597
-15.061
-14.348
-13.136
-11.218
-8.663
-5.668
-2.361
1.062
4.335
7.279
9.646
11.29
12.289
12.82
13.096
13.431
14.205
15.666
17.998
21.298
25.502
30.499
36.155
42.247
48.488
54.667
60.636
66.308
71.679
76.748
81.503
85.961
90.168
94.163
97.986
101.664
105.204
108.627
111.974
115.289
118.63
122.039
125.536
129.134
132.838
136.648
140.564
144.575
148.657
152.79
156.955
161.135
165.317
169.482
173.605
177.657
181.612
185.444
189.129
192.647
195.973
199.087
201.967
204.596
206.957
209.035
210.809
212.263
213.379
214.142
214.537
214.554
214.18
213.407
212.229
210.641
208.642
206.233
203.415
200.194
196.577
192.573
188.193
183.45
178.36
172.939
167.207
161.184
154.892
148.353
141.592
134.634
127.504
120.23
112.839
105.359
97.816
90.238
82.653
75.088
67.57
60.125
52.778
45.553
38.474
31.564
24.841
18.327
12.038
5.991
0.199
-5.325
-10.57
-15.526
-20.188
-24.55
-28.608
-32.359
-35.804
-38.943
-41.78
-44.319
-46.566
-48.527
-50.212
-51.629
-52.789
-53.703
-54.385
-54.847
-55.104
-55.168
-55.056
-54.782
-54.362
-53.811
-53.145
-52.381
-51.532
-50.616
-49.646
-48.638
-47.605
-46.562
-45.52
-44.492
-43.489
-42.521
-41.598
-40.728
-39.919
-39.178
-38.51
-37.921
-37.413
-36.989
-36.652
-36.4
-36.235
-36.153
-36.153
-36.23
-36.382
-36.602
-36.887
-37.228
-37.62
-38.055
-38.525
-39.021
-39.534
-40.055
-40.574
-41.082
-41.568
-42.025
-42.442
-42.81
-43.12
-43.366
-43.54
-43.634
-43.642
-43.559
-43.38
-43.101
-42.72
-42.234
-41.643
-40.949
-40.152
-39.261
-38.279
-37.212
-36.07
-34.86
-33.592
-32.276
-30.92
-29.533
-28.122
-26.699
-25.276
-23.865
-22.479
-21.13
-19.829
-18.589
-17.422
-16.338
-15.344
-14.44
-13.631
-12.924
-12.328
-11.86
-11.534
-11.354
-11.325
-11.449
-11.72
-12.133
-12.668
-13.292
-13.98
-14.708
-15.458
-16.223
-16.991
-17.739
-18.447
-19.084
-19.621
-20.046
-20.354
-20.549
-20.657
-20.721
-20.795
-20.965
-21.317
-21.925
-22.871
-24.224
-26.047
-28.392
-31.314
-34.888
-39.143
-44.052
-49.474
-55.12
-60.67
-65.824
-70.225
-73.457
-75.215
-75.31
-73.866
-71.496
-68.87
-66.558
-65.291
-65.786
-68.539
-74.071
-81.783
-89.243
-93.892
-93.015
-85.132
-72.478
-57.35
-40.519
-20.888
9.132
58.256
131.052
228.775
341.848
454.144
550.183
612.941
633.462
609.099
538.578
427.026
278.197
98.744
-96.773
-291.554
-461.901
-586.455
-655.304
-668.048
-637.738
-582.988
-519.354
-458.402
-404.775
-358.695
-318.389
-281.247
-244.867
-207.144
-168.807
-132.157
-99.953
-75.413
-58.874
-48.698
-43.154
-39.955
-37.609
-35.637
-33.46
-30.632
-27.276
-23.532
-19.41
-15.248
-11.46
-8.246
-5.921
-4.692
-4.209
-4.234
-4.798
-5.678
-6.608
-7.425
-7.829
-7.644
-7.042
-6.014
-4.329
-1.926
1.233
5.15
9.67
14.691
20.237
26.195
32.33
38.475
44.459
50.17
55.602
60.731
65.511
69.942
74.048
77.862
81.438
84.815
88.007
91.046
93.972
96.832
99.691
102.594
105.57
108.64
111.813
115.095
118.484
121.972
125.538
129.165
132.835
136.532
140.244
143.955
147.646
151.295
154.875
158.363
161.737
164.977
168.064
170.977
173.698
176.21
178.499
180.55
182.345
183.868
185.101
186.027
186.632
186.903
186.826
186.391
185.59
184.415
182.864
180.934
178.624
175.936
172.874
169.442
165.648
161.502
157.014
152.198
147.067
141.639
135.931
129.962
123.753
117.327
110.705
103.911
96.97
89.907
82.747
75.516
68.239
60.944
53.655
46.399
39.2
32.082
25.071
18.188
11.454
4.891
-1.484
-7.652
-13.598
-19.307
-24.768
-29.967
-34.897
-39.548
-43.914
-47.991
-51.775
-55.265
-58.462
-61.366
-63.981
-66.312
-68.364
-70.146
-71.666
-72.933
-73.958
-74.752
-75.329
-75.702
-75.884
-75.889
-75.734
-75.432
-75.001
-74.454
-73.808
-73.078
-72.279
-71.425
-70.532
-69.612
-68.679
-67.745
-66.822
-65.921
-65.052
-64.225
-63.448
-62.727
-62.069
-61.48
-60.963
-60.521
-60.155
-59.865
-59.651
-59.512
-59.444
-59.446
-59.511
-59.635
-59.812
-60.036
-60.299
-60.592
-60.908
-61.236
-61.569
-61.896
-62.209
-62.496
-62.75
-62.961
-63.12
-63.22
-63.253
-63.212
-63.089
-62.879
-62.577
-62.18
-61.684
-61.087
-60.388
-59.59
-58.697
-57.714
-56.646
-55.498
-54.279
-52.997
-51.662
-50.283
-48.866
-47.419
-45.954
-44.483
-43.019
-41.575
-40.162
-38.792
-37.481
-36.24
-35.081
-34.012
-33.034
-32.153
-31.377
-30.716
-30.187
-29.799
-29.556
-29.463
-29.52
-29.724
-30.066
-30.529
-31.078
-31.689
-32.342
-33.02
-33.714
-34.408
-35.079
-35.71
-36.276
-36.759
-37.146
-37.428
-37.608
-37.714
-37.786
-37.881
-38.07
-38.423
-39.01
-39.907
-41.181
-42.909
-45.139
-47.912
-51.292
-55.295
-59.895
-64.998
-70.359
-75.665
-80.636
-84.94
-88.19
-90.125
-90.552
-89.449
-87.216
-84.409
-81.544
-79.2
-78.027
-78.515
-80.987
-85.626
-91.291
-95.527
-96.09
-90.534
-78.072
-61.442
-42.518
-21.733
2.399
37.43
90.216
163.056
255.236
356.605
453.111
532.764
582.355
594.771
566.669
493.755
377.264
220.082
30.713
-170.894
-361.844
-516.996
-617.363
-660.571
-654.26
-614.828
-560.503
-501.277
-443.26
-388.955
-338.705
-294.235
-255.611
-220.963
-187.721
-154.507
-122.146
-93.257
-71.124
-56.55
-48.225
-44.016
-41.362
-38.866
-36.055
-32.472
-27.858
-22.225
-15.756
-8.899
-2.214
3.843
8.913
12.65
14.761
15.249
14.325
12.328
9.727
6.955
4.356
2.271
0.983
0.628
1.255
2.853
5.335
8.612
12.591
17.154
22.191
27.597
33.273
39.115
45
50.812
56.463
61.891
67.061
71.961
76.576
80.909
84.985
88.842
92.521
96.058
99.482
102.825
106.126
109.433
112.797
116.259
119.84
123.555
127.407
131.395
135.514
139.751
144.077
148.468
152.899
157.349
161.8
166.231
170.614
174.923
179.128
183.204
187.128
190.875
194.421
197.743
200.818
203.629
206.157
208.386
210.296
211.869
213.088
213.936
214.4
214.467
214.126
213.367
212.185
210.577
208.541
206.081
203.198
199.9
196.194
192.091
187.605
182.749
177.54
171.996
166.138
159.986
153.565
146.898
140.011
132.929
125.68
118.292
110.792
103.21
95.573
87.91
80.249
72.618
65.045
57.557
50.177
42.932
35.845
28.938
22.232
15.744
9.493
3.492
-2.243
-7.703
-12.876
-17.756
-22.335
-26.61
-30.578
-34.237
-37.588
-40.633
-43.376
-45.822
-47.977
-49.85
-51.449
-52.785
-53.868
-54.711
-55.326
-55.728
-55.93
-55.946
-55.793
-55.485
-55.038
-54.468
-53.789
-53.018
-52.17
-51.259
-50.299
-49.304
-48.286
-47.258
-46.231
-45.215
-44.221
-43.257
-42.332
-41.453
-40.626
-39.857
-39.149
-38.506
-37.93
-37.423
-36.982
-36.609
-36.301
-36.055
-35.869
-35.738
-35.657
-35.622
-35.625
-35.659
-35.718
-35.793
-35.875
-35.957
-36.03
-36.084
-36.113
-36.107
-36.059
-35.962
-35.809
-35.592
-35.306
-34.946
-34.505
-33.982
-33.371
-32.672
-31.882
-31.002
-30.035
-28.984
-27.855
-26.651
-25.379
-24.049
-22.671
-21.252
-19.803
-18.329
-16.84
-15.346
-13.86
-12.392
-10.953
-9.553
-8.205
-6.925
-5.724
-4.614
-3.598
-2.674
-1.845
-1.114
-0.49
0.014
0.389
0.633
0.738
0.699
0.514
0.187
-0.265
-0.806
-1.407
-2.045
-2.711
-3.411
-4.149
-4.915
-5.685
-6.427
-7.114
-7.731
-8.281
-8.755
-9.14
-9.463
-9.815
-10.367
-11.296
-12.706
-14.594
-16.912
-19.69
-22.913
-26.494
-30.25
-33.898
-37.301
-40.505
-43.563
-46.394
-48.898
-50.958
-52.529
-53.773
-54.713
-55.294
-55.621
-55.894
-56.494
-57.964
-60.715
-64.996
-70.612
-76.513
-81.277
-83.232
-81.514
-76.681
-69.419
-59.972
-46.187
-23.697
12.426
66.412
138.29
224.824
319.338
411.685
492.027
549.641
575.442
563.842
511.229
417.954
286.488
123.094
-59.858
-244.882
-408.945
-531.179
-599.988
-615.239
-589.822
-541.815
-486.433
-433.728
-386.389
-343.486
-304.657
-269.134
-236.873
-207.459
-179.004
-151.289
-125.027
-101.623
-83.373
-70.547
-62.113
-56.814
-52.979
-49.764
-46.964
-44.212
-41.229
-37.974
-34.495
-30.978
-27.692
-24.833
-22.575
-21.131
-20.717
-21.339
-22.792
-24.827
-27.126
-29.366
-31.3
-32.666
-33.199
-32.774
-31.373
-29.018
-25.812
-21.87
-17.284
-12.199
-6.777
-1.144
4.563
10.246
15.846
21.284
26.503
31.471
36.163
40.575
44.723
48.618
52.277
55.74
59.036
62.209
65.307
68.375
71.465
74.618
77.859
81.207
84.673
88.257
91.957
95.764
99.658
103.622
107.639
111.689
115.757
119.823
123.862
127.851
131.764
135.575
139.261
142.801
146.172
149.356
152.332
155.082
157.591
159.842
161.818
163.501
164.873
165.917
166.62
166.968
166.948
166.55
165.767
164.592
163.023
161.059
158.701
155.952
152.817
149.304
145.422
141.181
136.597
131.683
126.457
120.938
115.145
109.102
102.83
96.354
89.698
82.888
75.95
68.912
61.8
54.641
47.462
40.29
33.153
26.076
19.084
12.203
5.455
-1.136
-7.55
-13.767
-19.77
-25.542
-31.07
-36.339
-41.34
-46.062
-50.499
-54.645
-58.496
-62.049
-65.304
-68.262
-70.926
-73.3
-75.389
-77.202
-78.745
-80.029
-81.064
-81.861
-82.433
-82.792
-82.953
-82.93
-82.737
-82.389
-81.901
-81.289
-80.567
-79.752
-78.857
-77.897
-76.886
-75.837
-74.764
-73.678
-72.59
-71.512
-70.452
-69.42
-68.425
-67.473
-66.569
-65.72
-64.929
-64.2
-63.534
-62.932
-62.395
-61.92
-61.508
-61.155
-60.858
-60.613
-60.415
-60.259
-60.139
-60.05
-59.983
-59.932
-59.888
-59.845
-59.793
-59.727
-59.637
-59.515
-59.355
-59.149
-58.892
-58.576
-58.197
-57.747
-57.224
-56.624
-55.944
-55.181
-54.334
-53.404
-52.391
-51.3
-50.136
-48.902
-47.604
-46.25
-44.846
-43.401
-41.923
-40.417
-38.89
-37.351
-35.811
-34.28
-32.77
-31.291
-29.854
-28.471
-27.152
-25.906
-24.741
-23.656
-22.657
-21.746
-20.935
-20.237
-19.662
-19.215
-18.898
-18.715
-18.659
-18.723
-18.887
-19.121
-19.398
-19.698
-20.006
-20.319
-20.624
-20.906
-21.146
-21.316
-21.403
-21.394
-21.278
-21.057
-20.757
-20.414
-20.102
-19.912
-19.914
-20.181
-20.78
-21.766
-23.214
-25.18
-27.696
-30.811
-34.576
-38.993
-44.023
-49.508
-55.126
-60.545
-65.433
-69.401
-72.07
-73.156
-72.514
-70.334
-67.206
-63.787
-60.647
-58.429
-57.799
-59.222
-63.083
-68.783
-74.12
-76.586
-73.565
-63.628
-48.746
-31.478
-13.293
6.178
33.863
78.513
145.283
236.004
341.439
445.46
533.096
588.517
603.521
576.091
503.894
389.825
237.636
55.09
-139.452
-324.725
-476.864
-577.063
-622.159
-618.594
-581.625
-529.046
-470.978
-413.922
-360.843
-312.047
-268.99
-231.534
-197.587
-164.695
-131.719
-99.554
-70.854
-48.866
-34.372
-26.118
-22.007
-19.529
-17.412
-15.423
-13.374
-11.094
-8.411
-5.186
-1.649
1.806
4.933
7.708
10.223
12.413
14.111
15.131
15.505
15.461
15.227
14.893
14.41
13.844
13.426
13.5
14.312
15.916
18.276
21.362
25.206
29.785
34.963
40.491
46.119
51.691
57.119
62.352
67.346
72.045
76.432
80.526
84.365
87.983
91.407
94.652
97.729
100.674
103.527
106.34
109.171
112.058
115.028
118.099
121.277
124.567
127.967
131.464
135.039
138.671
142.341
146.033
149.734
153.427
157.088
160.691
164.209
167.617
170.893
174.018
176.969
179.727
182.271
184.587
186.658
188.471
190.009
191.255
192.192
192.806
193.083
193.013
192.583
191.785
190.613
189.063
187.134
184.826
182.141
179.085
175.662
171.882
167.755
163.293
158.51
153.422
148.045
142.4
136.505
130.382
124.055
117.544
110.876
104.074
97.163
90.169
83.116
76.032
68.94
61.866
54.835
47.871
40.996
34.235
27.607
21.134
14.834
8.724
2.82
-2.863
-8.313
-13.518
-18.469
-23.159
-27.58
-31.727
-35.598
-39.191
-42.504
-45.54
-48.301
-50.79
-53.013
-54.976
-56.686
-58.153
-59.384
-60.391
-61.185
-61.776
-62.178
-62.403
-62.465
-62.376
-62.15
-61.802
-61.344
-60.792
-60.158
-59.456
-58.699
-57.899
-57.069
-56.22
-55.364
-54.511
-53.67
-52.852
-52.065
-51.316
-50.614
-49.965
-49.373
-48.845
-48.383
-47.99
-47.669
-47.42
-47.243
-47.137
-47.1
-47.131
-47.227
-47.383
-47.596
-47.859
-48.169
-48.519
-48.901
-49.308
-49.733
-50.168
-50.605
-51.036
-51.452
-51.846
-52.209
-52.534
-52.813
-53.041
-53.208
-53.309
-53.338
-53.29
-53.161
-52.946
-52.643
-52.25
-51.768
-51.2
-50.55
-49.82
-49.016
-48.142
-47.207
-46.218
-45.18
-44.099
-42.981
-41.835
-40.67
-39.499
-38.331
-37.175
-36.045
-34.952
-33.907
-32.922
-32.001
-31.147
-30.366
-29.664
-29.051
-28.545
-28.157
-27.893
-27.758
-27.757
-27.885
-28.137
-28.495
-28.929
-29.413
-29.93
-30.462
-31.004
-31.542
-32.056
-32.532
-32.946
-33.28
-33.522
-33.665
-33.713
-33.695
-33.655
-33.649
-33.756
-34.049
-34.603
-35.497
-36.803
-38.592
-40.907
-43.784
-47.285
-51.428
-56.201
-61.51
-67.098
-72.659
-77.918
-82.545
-86.161
-88.505
-89.333
-88.613
-86.815
-84.469
-82.065
-80.288
-79.754
-80.886
-84.217
-89.476
-94.854
-98.272
-97.475
-91.07
-80.048
-66.121
-50.099
-30.665
-4.018
35.907
94.136
171.443
265.449
367.292
463.781
542.298
589.1
595.009
556.043
470.024
340.473
174.158
-17.393
-214.51
-395.307
-537.912
-627.065
-661.406
-648.456
-603.336
-543.42
-479.583
-420.373
-369.824
-326.151
-288.279
-252.36
-214.088
-174.254
-134.665
-98.653
-70.754
-51.684
-39.977
-33.935
-30.99
-29.73
-29.866
-30.832
-32.112
-33.323
-34.238
-34.707
-34.661
-34.024
-32.584
-30.34
-27.487
-24.245
-20.735
-17.109
-13.633
-10.502
-7.95
-6.086
-4.79
-3.862
-3.12
-2.306
-1.085
0.762
3.411
6.952
11.29
16.291
21.807
27.615
33.48
39.237
44.762
49.984
54.905
59.523
63.841
67.892
71.709
75.325
78.77
82.062
85.223
88.287
91.298
94.313
97.374
100.51
103.74
107.073
110.512
114.058
117.7
121.424
125.213
129.053
132.931
136.835
140.75
144.655
148.526
152.337
156.063
159.68
163.165
166.498
169.658
172.623
175.377
177.902
180.181
182.196
183.928
185.359
186.47
187.246
187.672
187.736
187.425
186.73
185.645
184.166
182.29
180.017
177.347
174.286
170.839
167.015
162.824
158.278
153.392
148.181
142.664
136.859
130.789
124.475
117.94
111.208
104.306
97.258
90.091
82.831
75.505
68.139
60.762
53.398
46.074
38.815
31.646
24.59
17.672
10.911
4.327
-2.06
-8.234
-14.179
-19.882
-25.331
-30.516
-35.428
-40.06
-44.406
-48.464
-52.231
-55.707
-58.893
-61.791
-64.406
-66.743
-68.808
-70.61
-72.156
-73.457
-74.523
-75.366
-75.998
-76.43
-76.677
-76.753
-76.67
-76.444
-76.088
-75.618
-75.046
-74.389
-73.658
-72.867
-72.03
-71.158
-70.264
-69.358
-68.451
-67.554
-66.675
-65.823
-65.005
-64.227
-63.497
-62.818
-62.194
-61.628
-61.122
-60.676
-60.292
-59.968
-59.704
-59.497
-59.344
-59.241
-59.184
-59.168
-59.187
-59.234
-59.302
-59.384
-59.474
-59.562
-59.642
-59.706
-59.746
-59.754
-59.724
-59.648
-59.52
-59.334
-59.082
-58.761
-58.365
-57.892
-57.337
-56.699
-55.978
-55.176
-54.295
-53.337
-52.306
-51.208
-50.048
-48.833
-47.57
-46.263
-44.918
-43.545
-42.151
-40.749
-39.348
-37.959
-36.593
-35.26
-33.972
-32.74
-31.568
-30.461
-29.421
-28.455
-27.573
-26.79
-26.117
-25.559
-25.122
-24.809
-24.618
-24.544
-24.571
-24.672
-24.823
-25.007
-25.211
-25.431
-25.657
-25.874
-26.062
-26.196
-26.263
-26.249
-26.144
-25.948
-25.682
-25.382
-25.12
-24.983
-25.039
-25.358
-26.009
-27.047
-28.55
-30.578
-33.166
-36.363
-40.219
-44.746
-49.917
-55.586
-61.438
-67.141
-72.359
-76.698
-79.767
-81.257
-80.975
-79.071
-76.122
-72.789
-69.663
-67.455
-66.921
-68.615
-73.054
-79.613
-85.917
-89.495
-87.798
-79.609
-67.164
-52.473
-36.033
-16.532
13.565
62.408
133.915
228.974
338.053
445.462
536.725
595.831
613.637
587.01
512.98
394.44
235.562
44.747
-159.018
-353.627
-513.645
-618.796
-665.042
-658.787
-617.023
-559.699
-498.391
-440.386
-387.668
-338.861
-294.425
-253.671
-215.131
-177.734
-141.275
-107.217
-78.157
-56.646
-42.868
-35.245
-31.658
-29.706
-27.989
-25.941
-23.094
-19.375
-15.109
-10.643
-6.295
-2.331
0.984
3.401
4.725
4.999
4.671
4.209
3.824
3.538
3.424
3.622
4.284
5.466
6.953
8.552
10.315
12.456
15.139
18.415
22.24
26.528
31.301
36.553
42.14
47.844
53.452
58.825
63.918
68.73
73.244
77.443
81.344
84.987
88.434
91.735
94.917
98.004
101.024
104.019
107.046
110.152
113.366
116.708
120.184
123.797
127.543
131.413
135.384
139.438
143.552
147.707
151.888
156.076
160.248
164.38
168.443
172.41
176.254
179.953
183.482
186.818
189.941
192.829
195.466
197.833
199.911
201.68
203.121
204.216
204.948
205.303
205.267
204.828
203.978
202.711
201.023
198.913
196.382
193.433
190.071
186.305
182.143
177.6
172.688
167.425
161.828
155.919
149.72
143.254
136.546
129.621
122.508
115.232
107.823
100.309
92.719
85.081
77.425
69.78
62.173
54.632
47.185
39.857
32.674
25.659
18.834
12.221
5.837
-0.301
-6.176
-11.776
-17.089
-22.105
-26.817
-31.218
-35.305
-39.075
-42.528
-45.666
-48.492
-51.011
-53.23
-55.156
-56.799
-58.169
-59.278
-60.138
-60.762
-61.165
-61.361
-61.366
-61.196
-60.866
-60.394
-59.796
-59.088
-58.287
-57.408
-56.467
-55.479
-54.459
-53.418
-52.372
-51.332
-50.309
-49.315
-48.358
-47.447
-46.591
-45.794
-45.063
-44.4
-43.81
-43.293
-42.848
-42.477
-42.177
-41.946
-41.78
-41.676
-41.629
-41.633
-41.681
-41.767
-41.881
-42.016
-42.163
-42.314
-42.458
-42.588
-42.694
-42.768
-42.801
-42.786
-42.716
-42.584
-42.382
-42.105
-41.748
-41.306
-40.776
-40.156
-39.443
-38.639
-37.746
-36.769
-35.712
-34.58
-33.381
-32.121
-30.811
-29.458
-28.071
-26.657
-25.223
-23.783
-22.346
-20.926
-19.536
-18.186
-16.89
-15.661
-14.51
-13.447
-12.478
-11.604
-10.829
-10.159
-9.602
-9.174
-8.884
-8.736
-8.736
-8.884
-9.176
-9.603
-10.147
-10.776
-11.464
-12.193
-12.944
-13.712
-14.484
-15.244
-15.979
-16.664
-17.28
-17.809
-18.239
-18.571
-18.826
-19.038
-19.256
-19.55
-19.987
-20.639
-21.582
-22.879
-24.586
-26.735
-29.354
-32.504
-36.208
-40.459
-45.158
-50.058
-54.874
-59.351
-63.179
-65.99
-67.504
-67.489
-65.968
-63.435
-60.461
-57.592
-55.545
-55.002
-56.451
-60.382
-66.356
-72.569
-77.124
-77.741
-72.978
-63.459
-49.806
-32.861
-12.265
15.252
54.166
109.781
185.197
278.074
379.798
475.283
547.554
582.722
573.033
518.311
422.776
291.901
132.188
-46.735
-229.634
-396.534
-526.37
-605.144
-631.345
-612.735
-564.788
-503.835
-439.994
-381.646
-332.973
-292.95
-260.949
-232.709
-202.755
-170.657
-137.403
-106.09
-81.539
-64.673
-54.1
-48.067
-43.95
-40.295
-36.82
-32.993
-28.34
-22.829
-16.595
-9.909
-3.265
2.904
8.324
12.575
15.241
16.297
15.895
14.31
11.994
9.318
6.616
4.285
2.658
1.92
2.158
3.369
5.481
8.437
12.15
16.503
21.372
26.626
32.163
37.882
43.664
49.403
54.999
60.37
65.476
70.297
74.811
79.017
82.931
86.571
89.979
93.196
96.249
99.179
102.027
104.836
107.665
110.557
113.538
116.628
119.835
123.16
126.603
130.153
133.79
137.493
141.242
145.017
148.803
152.581
156.328
160.019
163.626
167.125
170.494
173.712
176.756
179.607
182.243
184.647
186.803
188.696
190.307
191.617
192.609
193.267
193.576
193.522
193.093
192.278
191.07
189.464
187.456
185.047
182.237
179.03
175.432
171.45
167.095
162.378
157.315
151.921
146.213
140.211
133.937
127.412
120.66
113.706
106.574
99.291
91.884
84.38
76.807
69.192
61.563
53.949
46.377
38.874
31.466
24.178
17.035
10.06
3.275
-3.301
-9.649
-15.751
-21.593
-27.163
-32.447
-37.438
-42.126
-46.508
-50.578
-54.333
-57.775
-60.903
-63.721
-66.232
-68.442
-70.359
-71.99
-73.345
-74.436
-75.273
-75.869
-76.239
-76.397
-76.358
-76.137
-75.75
-75.215
-74.546
-73.761
-72.877
-71.91
-70.876
-69.79
-68.668
-67.525
-66.374
-65.228
-64.1
-63
-61.94
-60.928
-59.974
-59.085
-58.268
-57.529
-56.872
-56.301
-55.819
-55.427
-55.126
-54.914
-54.791
-54.752
-54.796
-54.918
-55.112
-55.374
-55.696
-56.071
-56.493
-56.951
-57.438
-57.944
-58.459
-58.973
-59.478
-59.964
-60.42
-60.838
-61.209
-61.526
-61.781
-61.966
-62.075
-62.102
-62.041
-61.888
-61.64
-61.294
-60.847
-60.3
-59.654
-58.914
-58.085
-57.17
-56.176
-55.11
-53.98
-52.796
-51.563
-50.289
-48.98
-47.648
-46.302
-44.956
-43.62
-42.307
-41.028
-39.797
-38.624
-37.519
-36.489
-35.534
-34.659
-33.87
-33.177
-32.593
-32.132
-31.798
-31.597
-31.531
-31.597
-31.787
-32.083
-32.453
-32.875
-33.327
-33.795
-34.272
-34.748
-35.205
-35.629
-35.997
-36.288
-36.487
-36.583
-36.577
-36.492
-36.363
-36.242
-36.2
-36.301
-36.615
-37.214
-38.16
-39.512
-41.303
-43.571
-46.375
-49.744
-53.672
-58.053
-62.628
-67.096
-71.179
-74.548
-76.833
-77.754
-77.108
-74.992
-71.966
-68.671
-65.71
-63.816
-63.676
-65.766
-70.498
-77.192
-83.692
-87.911
-87.576
-81.502
-71.156
-57.214
-39.324
-16.076
18.104
67.958
134.672
217.26
307.659
394.369
467.34
516.014
534.486
520.848
472.977
391.056
275.914
130.833
-33.732
-201.244
-351.535
-465.837
-534.018
-557.154
-544.153
-508.002
-459.988
-406.518
-352.198
-300.223
-253.448
-214.474
-183.083
-156.896
-132.771
-109.067
-86.349
-66.65
-52.292
-43.434
-38.821
-36.751
-35.165
-33.1
-30.267
-26.324
-21.448
-16.002
-10.241
-4.603
0.476
4.747
7.894
9.642
10.034
9.27
7.645
5.527
3.233
1.049
-0.718
-1.793
-2.025
-1.367
0.161
2.489
5.552
9.271
13.549
18.253
23.251
28.434
33.69
38.939
44.115
49.14
53.961
58.545
62.873
66.945
70.773
74.369
77.747
80.941
83.979
86.9
89.749
92.567
95.404
98.297
101.27
104.343
107.527
110.822
114.227
117.731
121.317
124.968
128.668
132.4
136.148
139.892
143.612
147.282
150.879
154.377
157.754
160.988
164.06
166.949
169.635
172.101
174.332
176.312
178.024
179.451
180.575
181.381
181.855
181.985
181.758
181.166
180.199
178.855
177.13
175.024
172.537
169.675
166.441
162.844
158.893
154.6
149.979
145.045
139.815
134.309
128.546
122.549
116.34
109.944
103.384
96.687
89.877
82.982
76.027
69.039
62.044
55.069
48.14
41.281
34.517
27.872
21.367
15.025
8.864
2.903
-2.841
-8.354
-13.621
-18.633
-23.378
-27.849
-32.04
-35.945
-39.563
-42.892
-45.933
-48.687
-51.159
-53.353
-55.275
-56.934
-58.337
-59.495
-60.418
-61.117
-61.606
-61.897
-62.004
-61.94
-61.721
-61.361
-60.875
-60.277
-59.582
-58.805
-57.96
-57.061
-56.122
-55.155
-54.173
-53.187
-52.21
-51.25
-50.317
-49.42
-48.567
-47.763
-47.016
-46.331
-45.712
-45.162
-44.686
-44.285
-43.959
-43.71
-43.536
-43.437
-43.408
-43.448
-43.553
-43.718
-43.94
-44.212
-44.529
-44.885
-45.274
-45.688
-46.121
-46.565
-47.012
-47.455
-47.885
-48.296
-48.68
-49.031
-49.342
-49.608
-49.824
-49.983
-50.082
-50.115
-50.078
-49.97
-49.785
-49.523
-49.181
-48.761
-48.264
-47.695
-47.058
-46.356
-45.596
-44.784
-43.927
-43.031
-42.101
-41.141
-40.158
-39.159
-38.152
-37.147
-36.153
-35.178
-34.233
-33.327
-32.468
-31.664
-30.919
-30.233
-29.61
-29.056
-28.58
-28.197
-27.919
-27.753
-27.701
-27.768
-27.949
-28.237
-28.616
-29.056
-29.534
-30.024
-30.508
-30.978
-31.423
-31.83
-32.185
-32.46
-32.632
-32.698
-32.665
-32.546
-32.368
-32.156
-31.949
-31.835
-31.905
-32.247
-32.949
-34.071
-35.648
-37.724
-40.367
-43.598
-47.398
-51.667
-56.169
-60.666
-64.971
-68.859
-72.054
-74.345
-75.556
-75.677
-75.075
-74.192
-73.364
-72.968
-73.383
-74.843
-77.535
-81.526
-85.709
-87.995
-86.559
-79.414
-66.237
-49.779
-31.841
-13.189
6.974
34.986
76.569
134.103
208.003
290.096
368.143
430.851
465.742
466.436
431.78
361.537
259.714
131.239
-16.371
-168.733
-308.934
-419.379
-487.486
-512.209
-500.559
-465.053
-418.416
-368.096
-319.077
-274.217
-235.311
-203.998
-179.21
-158.129
-137.618
-116.104
-94.645
-75.793
-62.096
-54.143
-50.873
-50.262
-50.104
-49.204
-46.99
-43.347
-38.605
-33.023
-26.832
-20.521
-14.583
-9.508
-5.834
-3.696
-2.885
-3.144
-4.17
-5.662
-7.39
-9.05
-10.237
-10.722
-10.431
-9.347
-7.544
-5.073
-1.929
1.829
6.085
10.715
15.574
20.532
25.538
30.542
35.492
40.345
45.036
49.524
53.812
57.909
61.819
65.549
69.094
72.461
75.692
78.831
81.93
85.041
88.194
91.408
94.703
98.09
101.576
105.161
108.831
112.564
116.346
120.165
124.01
127.869
131.72
135.541
139.308
142.998
146.587
150.052
153.371
156.522
159.486
162.246
164.786
167.093
169.15
170.942
172.452
173.664
174.563
175.136
175.37
175.253
174.777
173.933
172.718
171.13
169.167
166.831
164.127
161.059
157.634
153.862
149.754
145.324
140.584
135.552
130.245
124.681
118.882
112.868
106.661
100.286
93.764
87.12
80.377
73.562
66.698
59.811
52.925
46.064
39.253
32.515
25.874
19.35
12.966
6.739
0.689
-5.168
-10.816
-16.243
-21.436
-26.385
-31.081
-35.517
-39.687
-43.586
-47.212
-50.563
-53.64
-56.443
-58.976
-61.241
-63.244
-64.99
-66.488
-67.744
-68.768
-69.569
-70.158
-70.546
-70.746
-70.768
-70.626
-70.332
-69.901
-69.345
-68.678
-67.913
-67.064
-66.143
-65.164
-64.138
-63.077
-61.993
-60.897
-59.798
-58.706
-57.63
-56.578
-55.56
-54.58
-53.648
-52.767
-51.945
-51.185
-50.491
-49.865
-49.31
-48.827
-48.416
-48.076
-47.806
-47.605
-47.471
-47.4
-47.39
-47.435
-47.532
-47.675
-47.858
-48.075
-48.321
-48.587
-48.868
-49.155
-49.444
-49.727
-49.999
-50.252
-50.483
-50.683
-50.849
-50.975
-51.055
-51.086
-51.063
-50.982
-50.841
-50.64
-50.378
-50.059
-49.683
-49.254
-48.776
-48.254
-47.692
-47.094
-46.464
-45.805
-45.12
-44.416
-43.698
-42.975
-42.253
-41.543
-40.853
-40.192
-39.567
-38.985
-38.45
-37.963
-37.526
-37.14
-36.811
-36.554
-36.38
-36.296
-36.305
-36.407
-36.596
-36.866
-37.201
-37.573
-37.957
-38.326
-38.66
-38.951
-39.197
-39.4
-39.553
-39.632
-39.619
-39.509
-39.316
-39.061
-38.766
-38.455
-38.166
-37.968
-37.948
-38.195
-38.784
-39.77
-41.18
-43.015
-45.305
-48.109
-51.432
-55.22
-59.318
-63.452
-67.366
-70.853
-73.652
-75.441
-75.953
-75.02
-72.757
-69.661
-66.356
-63.411
-61.314
-60.529
-61.419
-64.172
-68.607
-73.297
-75.86
-74.146
-66.141
-51.956
-33.859
-12.944
9.9
36.844
73.338
122.269
184.83
256.35
326.056
383.104
416.144
419.369
391.724
333.27
247.813
136.532
3.04
-141.686
-284.622
-405.754
-487.113
-523.079
-515.502
-477.212
-425.191
-369.953
-319.035
-274.947
-236.721
-204.497
-176.964
-152.189
-128.658
-105.703
-84.36
-66.689
-54.677
-48.488
-46.908
-47.949
-49.336
-49.799
-48.727
-45.945
-41.821
-36.693
-30.837
-24.786
-19.064
-14.137
-10.529
-8.344
-7.339
-7.293
-7.936
-8.992
-10.27
-11.477
-12.222
-12.308
-11.68
-10.327
-8.337
-5.753
-2.568
1.134
5.221
9.554
13.965
18.363
22.727
27.024
31.225
35.292
39.167
42.829
46.298
49.576
52.67
55.581
58.3
60.851
63.284
65.657
68.03
70.447
72.928
75.493
78.157
80.931
83.824
86.831
89.934
93.12
96.383
99.716
103.117
106.572
110.06
113.56
117.051
120.513
123.925
127.267
130.519
133.661
136.677
139.552
142.275
144.829
147.199
149.368
151.319
153.037
154.506
155.711
156.639
157.276
157.614
157.642
157.356
156.749
155.819
154.564
152.984
151.081
148.858
146.322
143.478
140.337
136.909
133.206
129.243
125.034
120.596
115.948
111.109
106.098
100.935
95.641
90.239
84.748
79.193
73.595
67.977
62.359
56.766
51.218
45.736
40.342
35.053
29.888
24.864
19.998
15.304
10.795
6.484
2.381
-1.504
-5.164
-8.591
-11.783
-14.734
-17.443
-19.909
-22.134
-24.118
-25.866
-27.382
-28.672
-29.742
-30.6
-31.255
-31.716
-31.993
-32.098
-32.042
-31.836
-31.493
-31.025
-30.445
-29.766
-29.002
-28.164
-27.266
-26.321
-25.34
-24.337
-23.322
-22.307
-21.302
-20.317
-19.361
-18.443
-17.571
-16.751
-15.991
-15.297
-14.672
-14.122
-13.649
-13.256
-12.943
-12.711
-12.558
-12.484
-12.486
-12.562
-12.708
-12.92
-13.194
-13.525
-13.907
-14.334
-14.8
-15.296
-15.817
-16.353
-16.896
-17.439
-17.973
-18.491
-18.987
-19.452
-19.879
-20.262
-20.594
-20.87
-21.082
-21.226
-21.298
-21.292
-21.206
-21.04
-20.795
-20.472
-20.074
-19.604
-19.067
-18.468
-17.812
-17.102
-16.342
-15.536
-14.687
-13.803
-12.89
-11.958
-11.016
-10.072
-9.137
-8.221
-7.331
-6.477
-5.662
-4.89
-4.165
-3.494
-2.886
-2.36
-1.927
-1.595
-1.366
-1.243
-1.221
-1.294
-1.447
-1.656
-1.898
-2.15
-2.397
-2.629
-2.845
-3.045
-3.213
-3.328
-3.374
-3.351
-3.283
-3.194
-3.106
-3.035
-3.007
-3.088
-3.368
-3.933
-4.856
-6.192
-7.951
-10.165
-12.917
-16.232
-20.061
-24.257
-28.525
-32.6
-36.336
-39.543
-41.98
-43.492
-43.977
-43.595
-42.862
-42.2
-41.907
-42.325
-43.619
-45.784
-48.794
-52.197
-55.076
-56.714
-55.794
-50.408
-39.252
-21.147
3.117
30.279
57.827
83.968
110.191
141.533
181.069
230.034
284.786
336.39
376.663
397.19
391.96
358.459
294.097
199.191
77.357
-62.854
-205.731
-333.206
-427.793
-478.752
-486.698
-458.79
-407.898
-347.963
-287.782
-234.875
-193.258
-161.827
-139.14
-121.092
-102.918
-84.059
-65.262
-48.743
-37.635
-32.101
-30.757
-31.602
-32.076
-30.9
-27.811
-22.983
-16.981
-10.222
-3.097
3.728
9.599
13.874
16.206
16.944
16.531
15.249
13.514
11.727
10.315
9.955
10.993
13.184
16.318
20.245
24.726
29.662
34.856
39.85
44.45
48.77
52.855
56.788
60.651
64.389
68.033
71.717
75.427
79.055
82.538
85.794
88.789
91.565
94.137
96.506
98.728
100.88
103.019
105.201
107.446
109.751
112.118
114.55
117.045
119.593
122.186
124.817
127.483
130.184
132.913
135.656
138.397
141.115
143.794
146.417
148.967
151.427
153.78
156.014
158.115
160.072
161.872
163.497
164.933
166.164
167.175
167.952
168.478
168.74
168.726
168.424
167.826
166.925
165.716
164.193
162.353
160.197
157.726
154.941
151.847
148.449
144.755
140.772
136.513
131.99
127.216
122.207
116.979
111.55
105.94
100.168
94.254
88.218
82.082
75.869
69.599
63.296
56.982
50.679
44.409
38.195
32.057
26.016
20.091
14.3
8.659
3.185
-2.107
-7.205
-12.096
-16.771
-21.218
-25.432
-29.404
-33.13
-36.608
-39.835
-42.81
-45.534
-48.01
-50.241
-52.232
-53.986
-55.513
-56.817
-57.909
-58.796
-59.489
-59.999
-60.337
-60.515
-60.545
-60.44
-60.212
-59.875
-59.441
-58.923
-58.335
-57.688
-56.995
-56.269
-55.521
-54.763
-54.005
-53.259
-52.534
-51.839
-51.181
-50.57
-50.011
-49.51
-49.074
-48.706
-48.412
-48.194
-48.056
-47.999
-48.025
-48.135
-48.328
-48.603
-48.957
-49.389
-49.895
-50.47
-51.111
-51.812
-52.568
-53.375
-54.225
-55.111
-56.028
-56.966
-57.92
-58.88
-59.839
-60.786
-61.716
-62.62
-63.492
-64.324
-65.11
-65.845
-66.521
-67.133
-67.677
-68.147
-68.537
-68.844
-69.063
-69.194
-69.235
-69.186
-69.048
-68.825
-68.519
-68.136
-67.68
-67.154
-66.563
-65.911
-65.202
-64.44
-63.627
-62.77
-61.875
-60.953
-60.013
-59.065
-58.117
-57.176
-56.247
-55.34
-54.456
-53.595
-52.754
-51.937
-51.154
-50.425
-49.765
-49.179
-48.669
-48.231
-47.865
-47.567
-47.32
-47.09
-46.846
-46.558
-46.218
-45.846
-45.453
-45.037
-44.586
-44.069
-43.477
-42.833
-42.151
-41.431
-40.684
-39.914
-39.171
-38.57
-38.218
-38.207
-38.592
-39.37
-40.542
-42.147
-44.24
-46.845
-49.897
-53.211
-56.545
-59.703
-62.53
-64.835
-66.326
-66.72
-65.882
-63.946
-61.418
-58.88
-56.785
-55.579
-55.666
-57.244
-60.373
-64.683
-69.029
-72.048
-72.425
-68.675
-59.458
-43.762
-20.558
10.081
46.224
85.416
124.842
162.679
199.458
235.812
270.655
299.321
313.595
304.078
263.606
191.235
90.677
-30.147
-159.482
-285.819
-396.653
-479.329
-526.212
-535.246
-509.587
-459.203
-396.471
-331.444
-273.632
-228.197
-194.282
-169.674
-149.342
-128.169
-105.666
-83.112
-63.332
-49.616
-42.196
-39.722
-40.105
-40.855
-40.728
-39.198
-36.111
-31.834
-26.65
-20.828
-14.901
-9.337
-4.614
-1.223
0.767
1.52
1.246
0.258
-1.164
-2.775
-4.233
-5.197
-5.5
-5.074
-3.928
-2.137
0.264
3.239
6.704
10.54
14.621
18.832
23.086
27.325
31.505
35.572
39.471
43.158
46.618
49.846
52.852
55.644
58.224
60.605
62.814
64.89
66.876
68.819
70.765
72.747
74.79
76.913
79.131
81.448
83.863
86.37
88.953
91.6
94.302
97.047
99.823
102.614
105.4
108.162
110.878
113.526
116.087
118.543
120.875
123.068
125.105
126.975
128.664
130.16
131.449
132.518
133.352
133.938
134.263
134.318
134.091
133.574
132.759
131.643
130.223
128.497
126.466
124.133
121.5
118.575
115.363
111.874
108.119
104.109
99.859
95.383
90.697
85.819
80.767
75.561
70.219
64.761
59.208
53.582
47.901
42.187
36.461
30.744
25.056
19.417
13.847
8.365
2.989
-2.262
-7.374
-12.329
-17.115
-21.718
-26.127
-30.331
-34.321
-38.091
-41.633
-44.944
-48.019
-50.857
-53.457
-55.819
-57.946
-59.839
-61.502
-62.941
-64.16
-65.166
-65.966
-66.568
-66.98
-67.21
-67.268
-67.163
-66.905
-66.503
-65.969
-65.312
-64.544
-63.674
-62.714
-61.673
-60.563
-59.394
-58.176
-56.918
-55.631
-54.322
-53
-51.674
-50.35
-49.036
-47.739
-46.465
-45.219
-44.006
-42.833
-41.702
-40.619
-39.586
-38.607
-37.684
-36.819
-36.015
-35.273
-34.594
-33.98
-33.43
-32.946
-32.527
-32.174
-31.884
-31.656
-31.489
-31.379
-31.324
-31.32
-31.364
-31.451
-31.578
-31.742
-31.937
-32.159
-32.404
-32.666
-32.941
-33.223
-33.507
-33.787
-34.056
-34.309
-34.54
-34.745
-34.917
-35.053
-35.147
-35.195
-35.192
-35.135
-35.019
-34.841
-34.597
-34.285
-33.903
-33.45
-32.928
-32.337
-31.682
-30.966
-30.193
-29.369
-28.498
-27.585
-26.636
-25.652
-24.639
-23.6
-22.542
-21.469
-20.391
-19.318
-18.26
-17.225
-16.223
-15.26
-14.345
-13.483
-12.674
-11.92
-11.222
-10.587
-10.031
-9.567
-9.201
-8.937
-8.774
-8.705
-8.727
-8.826
-8.976
-9.151
-9.326
-9.478
-9.614
-9.746
-9.876
-9.999
-10.098
-10.155
-10.177
-10.188
-10.203
-10.237
-10.304
-10.428
-10.684
-11.161
-11.942
-13.101
-14.666
-16.635
-19.017
-21.844
-25.161
-28.964
-33.15
-37.511
-41.806
-45.821
-49.376
-52.259
-54.155
-54.82
-54.197
-52.486
-50.186
-47.87
-46.011
-45
-45.198
-46.853
-50.029
-54.38
-59.066
-62.435
-62.286
-56.834
-44.508
-25.824
-3.378
20.989
45.475
71.434
103.575
144.613
195.917
254.17
309.974
353.136
373.195
361.617
314.938
234.11
122.881
-10.746
-154.396
-294.285
-414.068
-498.984
-542.505
-545.591
-515.79
-465.455
-405.665
-343.702
-286.04
-236.911
-197.262
-167.414
-144.352
-123.18
-102.252
-81.498
-62.797
-49.456
-42.037
-39.404
-39.583
-39.924
-39.089
-36.616
-32.434
-27.04
-20.834
-14.128
-7.478
-1.37
3.745
7.395
9.521
10.348
10.138
9.231
7.935
6.497
5.247
4.543
4.561
5.365
6.944
9.213
12.123
15.646
19.7
24.167
28.923
33.833
38.791
43.733
48.606
53.349
57.904
62.216
66.258
70.028
73.538
76.798
79.814
82.597
85.173
87.585
89.878
92.105
94.314
96.543
98.819
101.166
103.599
106.13
108.763
111.491
114.303
117.188
120.142
123.155
126.22
129.322
132.445
135.573
138.686
141.766
144.798
147.763
150.646
153.433
156.109
158.661
161.078
163.347
165.451
167.378
169.11
170.631
171.928
172.987
173.793
174.333
174.599
174.579
174.267
173.658
172.745
171.526
169.999
168.163
166.021
163.575
160.829
157.792
154.47
150.873
147.011
142.899
138.549
133.976
129.195
124.224
119.081
113.782
108.348
102.799
97.153
91.432
85.656
79.847
74.024
68.209
62.422
56.682
51.009
45.42
39.932
34.563
29.326
24.237
19.307
14.55
9.975
5.591
1.406
-2.573
-6.342
-9.896
-13.234
-16.353
-19.255
-21.941
-24.412
-26.673
-28.727
-30.581
-32.241
-33.714
-35.007
-36.13
-37.091
-37.9
-38.567
-39.103
-39.518
-39.823
-40.029
-40.146
-40.185
-40.157
-40.073
-39.941
-39.773
-39.577
-39.363
-39.138
-38.911
-38.689
-38.478
-38.285
-38.115
-37.973
-37.863
-37.788
-37.753
-37.76
-37.811
-37.906
-38.049
-38.238
-38.474
-38.757
-39.086
-39.462
-39.881
-40.344
-40.849
-41.393
-41.976
-42.595
-43.248
-43.932
-44.645
-45.385
-46.148
-46.932
-47.734
-48.553
-49.384
-50.226
-51.076
-51.931
-52.789
-53.648
-54.504
-55.355
-56.198
-57.029
-57.845
-58.645
-59.423
-60.178
-60.907
-61.606
-62.272
-62.901
-63.49
-64.036
-64.533
-64.979
-65.37
-65.702
-65.97
-66.171
-66.301
-66.359
-66.34
-66.243
-66.065
-65.804
-65.458
-65.025
-64.505
-63.896
-63.2
-62.415
-61.545
-60.592
-59.563
-58.461
-57.291
-56.061
-54.776
-53.445
-52.073
-50.667
-49.23
-47.768
-46.29
-44.803
-43.316
-41.839
-40.38
-38.95
-37.559
-36.215
-34.927
-33.699
-32.533
-31.433
-30.404
-29.453
-28.595
-27.843
-27.199
-26.669
-26.252
-25.943
-25.734
-25.606
-25.531
-25.486
-25.449
-25.4
-25.332
-25.236
-25.102
-24.923
-24.676
-24.341
-23.917
-23.412
-22.847
-22.265
-21.698
-21.2
-20.849
-20.725
-20.916
-21.505
-22.548
-24.104
-26.196
-28.857
-32.154
-36.099
-40.625
-45.587
-50.706
-55.671
-60.26
-64.186
-67.079
-68.699
-68.884
-67.689
-65.581
-63.107
-60.718
-58.887
-58.096
-58.665
-60.806
-64.528
-68.627
-70.853
-69.166
-61.46
-47.282
-29.188
-8.925
12.785
36.715
68.727
113.851
173.688
247.887
328.338
403.596
463.381
495.879
493.764
453.877
373.931
256.371
107.329
-62.816
-236.635
-393.109
-512.645
-582.117
-600.139
-576.448
-526.921
-468.4
-412.615
-365.158
-326.811
-294.027
-263.166
-231.222
-195.867
-158.388
-121.335
-87.406
-59.924
-39.663
-25.602
-16.539
-10.523
-6.357
-3.629
-1.735
-0.125
1.724
4.162
7.219
10.677
14.266
17.718
20.73
23.003
24.248
24.417
23.699
22.363
20.754
19.194
17.939
17.26
17.413
18.516
20.58
23.553
27.309
31.728
36.714
42.123
47.806
53.629
59.45
65.164
70.7
75.986
80.974
85.634
89.944
93.903
97.531
100.846
103.881
106.673
109.251
111.656
113.934
116.132
118.309
120.506
122.751
125.068
127.466
129.953
132.531
135.196
137.932
140.726
143.565
146.436
149.331
152.238
155.14
158.021
160.86
163.642
166.351
168.973
171.494
173.9
176.177
178.314
180.3
182.126
183.776
185.239
186.5
187.545
188.364
188.945
189.277
189.35
189.156
188.69
187.948
186.927
185.624
184.04
182.176
180.034
177.619
174.937
171.993
168.798
165.359
161.688
157.798
153.702
149.413
144.947
140.32
135.549
130.65
125.643
120.545
115.376
110.153
104.897
99.627
94.361
89.119
83.917
78.774
73.707
68.73
63.86
59.111
54.493
50.021
45.704
41.551
37.571
33.77
30.155
26.731
23.5
20.466
17.629
14.99
12.548
10.301
8.246
6.38
4.697
3.193
1.86
0.692
-0.319
-1.181
-1.903
-2.494
-2.962
-3.319
-3.572
-3.733
-3.809
-3.812
-3.749
-3.631
-3.465
-3.261
-3.027
-2.77
-2.498
-2.217
-1.936
-1.659
-1.393
-1.142
-0.913
-0.71
-0.536
-0.395
-0.292
-0.227
-0.205
-0.227
-0.294
-0.408
-0.57
-0.779
-1.037
-1.343
-1.697
-2.098
-2.545
-3.038
-3.574
-4.155
-4.777
-5.439
-6.14
-6.879
-7.652
-8.459
-9.296
-10.16
-11.049
-11.959
-12.886
-13.829
-14.782
-15.741
-16.704
-17.664
-18.619
-19.563
-20.491
-21.397
-22.276
-23.124
-23.934
-24.702
-25.421
-26.088
-26.696
-27.243
-27.724
-28.133
-28.467
-28.721
-28.893
-28.979
-28.978
-28.885
-28.701
-28.425
-28.059
-27.607
-27.072
-26.456
-25.766
-25.005
-24.181
-23.3
-22.366
-21.382
-20.355
-19.293
-18.203
-17.096
-15.981
-14.868
-13.765
-12.686
-11.638
-10.63
-9.668
-8.751
-7.884
-7.074
-6.33
-5.668
-5.102
-4.636
-4.277
-4.028
-3.886
-3.844
-3.886
-3.983
-4.112
-4.256
-4.4
-4.542
-4.673
-4.783
-4.861
-4.887
-4.848
-4.733
-4.539
-4.279
-3.983
-3.691
-3.46
-3.371
-3.5
-3.938
-4.769
-6.062
-7.888
-10.285
-13.29
-16.973
-21.346
-26.374
-31.947
-37.805
-43.655
-49.257
-54.309
-58.448
-61.436
-63.08
-63.395
-62.82
-61.865
-60.978
-60.649
-61.349
-63.401
-67.026
-72.193
-77.761
-81.707
-82.031
-76.508
-64.278
-46.827
-25.588
-2.03
23.657
55.194
96.96
152.598
223.586
305.039
387.765
460.055
508.807
524.19
498.745
427.364
310.223
150.909
-39.104
-238.487
-423.327
-568.453
-656.665
-687.003
-667.97
-616.806
-552.398
-485.583
-423.557
-369.566
-323.698
-286.866
-258.346
-234.089
-209.061
-180.063
-145.523
-108.675
-76.057
-50.959
-35.194
-27.632
-23.839
-21.55
-19.72
-17.623
-15.847
-14.52
-13.165
-11.721
-10.157
-8.275
-5.927
-3.212
-0.391
2.246
4.323
5.775
6.811
7.456
7.606
7.326
6.791
6.302
6.317
7.079
8.592
10.884
13.985
17.861
22.439
27.548
32.882
38.192
43.34
48.225
52.799
57.034
60.893
64.366
67.489
70.305
72.855
75.176
77.287
79.205
80.969
82.629
84.241
85.871
87.565
89.349
91.246
93.268
95.422
97.714
100.139
102.678
105.314
108.035
110.831
113.693
116.608
119.557
122.515
125.459
128.369
131.228
134.016
136.715
139.305
141.77
144.094
146.263
148.263
150.077
151.686
153.074
154.224
155.123
155.757
156.111
156.174
155.937
155.392
154.535
153.361
151.868
150.055
147.924
145.48
142.726
139.67
136.32
132.687
128.783
124.621
120.216
115.584
110.743
105.71
100.504
95.147
89.658
84.058
78.368
72.611
66.807
60.979
55.148
49.336
43.562
37.847
32.21
26.671
21.246
15.953
10.804
5.816
0.999
-3.635
-8.075
-12.316
-16.348
-20.167
-23.769
-27.15
-30.31
-33.247
-35.964
-38.462
-40.745
-42.817
-44.684
-46.351
-47.827
-49.118
-50.233
-51.182
-51.973
-52.616
-53.122
-53.499
-53.76
-53.915
-53.973
-53.946
-53.843
-53.676
-53.454
-53.186
-52.882
-52.551
-52.2
-51.839
-51.475
-51.114
-50.763
-50.429
-50.117
-49.833
-49.58
-49.363
-49.185
-49.048
-48.957
-48.911
-48.914
-48.965
-49.065
-49.214
-49.412
-49.66
-49.955
-50.297
-50.683
-51.114
-51.585
-52.096
-52.642
-53.221
-53.828
-54.461
-55.114
-55.786
-56.47
-57.162
-57.857
-58.551
-59.238
-59.912
-60.569
-61.201
-61.804
-62.37
-62.896
-63.373
-63.798
-64.164
-64.465
-64.698
-64.859
-64.941
-64.943
-64.859
-64.687
-64.425
-64.071
-63.625
-63.084
-62.45
-61.726
-60.915
-60.022
-59.051
-58.008
-56.898
-55.729
-54.509
-53.244
-51.941
-50.604
-49.244
-47.869
-46.492
-45.121
-43.768
-42.443
-41.159
-39.927
-38.757
-37.657
-36.628
-35.675
-34.806
-34.03
-33.359
-32.804
-32.368
-32.054
-31.865
-31.797
-31.843
-31.983
-32.189
-32.439
-32.717
-33.01
-33.312
-33.61
-33.889
-34.136
-34.339
-34.485
-34.568
-34.583
-34.535
-34.457
-34.397
-34.418
-34.602
-35.01
-35.702
-36.749
-38.21
-40.154
-42.64
-45.678
-49.289
-53.518
-58.368
-63.795
-69.656
-75.632
-81.384
-86.631
-91.027
-94.21
-95.902
-95.885
-94.236
-91.476
-88.184
-84.863
-82.19
-80.861
-81.404
-84.397
-89.322
-94.065
-96.555
-94.609
-87.527
-77.345
-65.466
-52.276
-35.687
-9.408
32.56
94.413
176.542
272.319
371.161
459.545
523.191
551.77
537.75
477.809
373.015
225.869
44.986
-154.634
-353.071
-524.813
-648.951
-715.168
-724.643
-691.527
-634.22
-568.758
-506.419
-451.64
-404.932
-364.199
-326.454
-288.989
-249.356
-208.17
-167.941
-131.749
-103.108
-82.819
-69.571
-61.61
-56.669
-53.393
-51.187
-49.351
-47.307
-44.569
-40.933
-36.575
-31.821
-27.034
-22.595
-18.858
-16.172
-14.81
-14.736
-15.683
-17.311
-19.205
-20.994
-22.387
-23.084
-22.836
-21.547
-19.218
-15.923
-11.805
-6.997
-1.611
4.198
10.281
16.497
22.699
28.774
34.64
40.217
45.459
50.334
54.822
58.927
62.669
66.074
69.186
72.046
74.691
77.169
79.531
81.832
84.136
86.492
88.934
91.486
94.164
96.975
99.924
103.004
106.199
109.495
112.876
116.327
119.837
123.392
126.972
130.557
134.123
137.649
141.117
144.51
147.807
150.992
154.045
156.95
159.695
162.263
164.636
166.797
168.726
170.406
171.82
172.953
173.789
174.315
174.519
174.392
173.926
173.115
171.956
170.446
168.583
166.37
163.81
160.908
157.67
154.106
150.226
146.043
141.57
136.824
131.82
126.577
121.113
115.449
109.605
103.603
97.467
91.217
84.879
78.475
72.03
65.567
59.109
52.679
46.3
39.994
33.781
27.681
21.712
15.893
10.239
4.767
-0.512
-5.583
-10.436
-15.062
-19.453
-23.603
-27.505
-31.157
-34.557
-37.703
-40.597
-43.24
-45.636
-47.789
-49.703
-51.386
-52.846
-54.09
-55.127
-55.968
-56.622
-57.102
-57.418
-57.581
-57.605
-57.501
-57.281
-56.959
-56.547
-56.058
-55.503
-54.895
-54.247
-53.569
-52.874
-52.172
-51.474
-50.789
-50.127
-49.497
-48.907
-48.365
-47.878
-47.452
-47.091
-46.802
-46.588
-46.452
-46.396
-46.423
-46.534
-46.73
-47.01
-47.375
-47.822
-48.351
-48.959
-49.642
-50.398
-51.221
-52.107
-53.05
-54.046
-55.088
-56.169
-57.282
-58.419
-59.574
-60.737
-61.9
-63.054
-64.19
-65.299
-66.373
-67.401
-68.377
-69.289
-70.132
-70.897
-71.576
-72.163
-72.651
-73.034
-73.307
-73.466
-73.508
-73.43
-73.228
-72.903
-72.455
-71.887
-71.202
-70.404
-69.498
-68.492
-67.393
-66.212
-64.955
-63.629
-62.241
-60.8
-59.316
-57.798
-56.256
-54.701
-53.146
-51.604
-50.087
-48.604
-47.16
-45.751
-44.379
-43.046
-41.758
-40.528
-39.365
-38.275
-37.267
-36.348
-35.522
-34.786
-34.121
-33.497
-32.897
-32.313
-31.755
-31.237
-30.762
-30.323
-29.909
-29.499
-29.08
-28.632
-28.115
-27.539
-26.96
-26.488
-26.298
-26.558
-27.37
-28.806
-30.918
-33.619
-36.723
-39.95
-42.936
-45.423
-47.27
-48.437
-48.941
-48.903
-48.61
-48.416
-48.688
-49.584
-51.136
-53.24
-55.792
-58.783
-62.045
-65.392
-68.711
-72.088
-75.714
-79.767
-84.344
-88.645
-91.03
-89.761
-82.669
-68.752
-49.682
-27.402
-3.978
20.142
49.832
91.721
152.064
234.332
333.08
435.893
526.092
585.312
601.122
567.482
483.893
356.528
193.152
5.098
-189.854
-372.549
-521.542
-619.662
-663.221
-657.526
-616.886
-559.3
-496.407
-436.277
-382.756
-335.851
-295.755
-260.775
-227.904
-194.6
-159.904
-125.246
-93.587
-68.003
-49.347
-36.479
-27.402
-20.051
-13.653
-8.193
-3.767
-0.452
1.984
3.685
4.511
4.532
4.051
3.412
3.126
3.508
4.576
6.413
9.119
12.547
16.399
20.36
24.022
27.167
29.817
32.007
33.837
35.552
37.466
39.835
42.877
46.667
51.13
56.157
61.583
67.197
72.761
78.095
83.093
87.7
91.929
95.799
99.331
102.569
105.57
108.382
111.033
113.555
115.971
118.321
120.661
123.038
125.486
128.028
130.675
133.432
136.303
139.283
142.354
145.503
148.715
151.976
155.279
158.611
161.954
165.288
168.589
171.833
175
178.068
181.017
183.828
186.48
188.957
191.243
193.321
195.173
196.779
198.121
199.18
199.939
200.382
200.495
200.264
199.678
198.731
197.414
195.725
193.66
191.218
188.402
185.213
181.659
177.747
173.486
168.888
163.965
158.734
153.212
147.416
141.366
135.082
128.587
121.903
115.055
108.067
100.963
93.769
86.512
79.216
71.908
64.613
57.357
50.164
43.058
36.062
29.198
22.486
15.945
9.592
3.445
-2.483
-8.178
-13.63
-18.828
-23.765
-28.435
-32.833
-36.956
-40.802
-44.371
-47.666
-50.689
-53.444
-55.937
-58.175
-60.166
-61.919
-63.444
-64.753
-65.857
-66.768
-67.5
-68.066
-68.48
-68.756
-68.91
-68.954
-68.905
-68.776
-68.58
-68.332
-68.045
-67.73
-67.4
-67.066
-66.738
-66.425
-66.136
-65.879
-65.662
-65.49
-65.369
-65.303
-65.295
-65.348
-65.463
-65.64
-65.88
-66.179
-66.536
-66.949
-67.413
-67.924
-68.476
-69.063
-69.679
-70.318
-70.97
-71.628
-72.283
-72.926
-73.549
-74.141
-74.696
-75.203
-75.655
-76.042
-76.357
-76.594
-76.744
-76.802
-76.76
-76.615
-76.361
-75.996
-75.517
-74.921
-74.208
-73.38
-72.441
-71.393
-70.242
-68.992
-67.65
-66.223
-64.72
-63.148
-61.512
-59.82
-58.083
-56.31
-54.515
-52.71
-50.905
-49.112
-47.343
-45.612
-43.93
-42.304
-40.737
-39.234
-37.805
-36.461
-35.221
-34.096
-33.092
-32.211
-31.456
-30.825
-30.312
-29.899
-29.557
-29.263
-28.997
-28.75
-28.52
-28.295
-28.062
-27.799
-27.48
-27.093
-26.631
-26.09
-25.479
-24.823
-24.158
-23.555
-23.099
-22.863
-22.928
-23.355
-24.198
-25.524
-27.377
-29.804
-32.875
-36.599
-40.946
-45.842
-51.079
-56.395
-61.556
-66.24
-70.067
-72.767
-74.115
-74.061
-72.896
-71.017
-68.815
-66.729
-65.262
-64.889
-65.981
-68.713
-72.292
-74.922
-74.773
-69.859
-59.486
-45.235
-28.477
-10.236
10.372
38.283
78.75
136.166
212.107
301.151
393.63
476.346
534.177
556.829
537.679
474.972
373.616
238.651
78.711
-92.611
-260.988
-407.874
-516.557
-579.603
-597.108
-577.198
-533.583
-478.234
-419.805
-365.743
-319.3
-280.312
-248.044
-218.225
-186.684
-153.446
-119.813
-89.086
-65.218
-48.652
-38.034
-31.652
-27.281
-23.741
-20.678
-17.483
-13.62
-8.967
-3.612
2.204
8.074
13.638
18.612
22.583
25.165
26.318
26.23
25.209
23.651
21.9
20.242
19.004
18.5
18.894
20.235
22.498
25.589
29.416
33.9
38.936
44.382
50.103
55.972
61.857
67.667
73.321
78.74
83.877
88.701
93.194
97.361
101.22
104.789
108.099
111.182
114.067
116.794
119.407
121.956
124.499
127.08
129.728
132.467
135.308
138.257
141.317
144.477
147.721
151.032
154.395
157.794
161.218
164.652
168.075
171.467
174.802
178.06
181.219
184.262
187.166
189.914
192.487
194.868
197.043
198.999
200.716
202.179
203.37
204.273
204.872
205.155
205.108
204.719
203.979
202.882
201.424
199.6
197.411
194.856
191.938
188.663
185.038
181.07
176.771
172.153
167.23
162.018
156.535
150.8
144.832
138.654
132.286
125.753
119.079
112.287
105.403
98.453
91.46
84.452
77.454
70.489
63.584
56.761
50.045
43.456
37.016
30.745
24.661
18.78
13.118
7.688
2.503
-2.427
-7.095
-11.492
-15.614
-19.456
-23.018
-26.298
-29.299
-32.023
-34.474
-36.658
-38.583
-40.256
-41.688
-42.888
-43.869
-44.643
-45.224
-45.625
-45.861
-45.946
-45.896
-45.727
-45.453
-45.091
-44.655
-44.161
-43.624
-43.058
-42.476
-41.892
-41.317
-40.764
-40.242
-39.761
-39.331
-38.958
-38.65
-38.413
-38.25
-38.167
-38.165
-38.245
-38.408
-38.652
-38.975
-39.374
-39.845
-40.383
-40.983
-41.637
-42.34
-43.083
-43.859
-44.659
-45.473
-46.292
-47.105
-47.905
-48.679
-49.418
-50.113
-50.755
-51.335
-51.845
-52.279
-52.628
-52.887
-53.05
-53.111
-53.068
-52.917
-52.655
-52.281
-51.796
-51.202
-50.506
-49.711
-48.824
-47.85
-46.8
-45.682
-44.504
-43.275
-42
-40.688
-39.35
-37.996
-36.638
-35.289
-33.96
-32.664
-31.416
-30.226
-29.106
-28.06
-27.092
-26.207
-25.411
-24.71
-24.121
-23.652
-23.308
-23.095
-23.014
-23.059
-23.222
-23.482
-23.808
-24.178
-24.568
-24.956
-25.335
-25.688
-26.008
-26.287
-26.506
-26.648
-26.705
-26.671
-26.56
-26.406
-26.238
-26.104
-26.073
-26.207
-26.588
-27.296
-28.39
-29.924
-31.906
-34.347
-37.291
-40.752
-44.704
-49.04
-53.504
-57.821
-61.779
-65.105
-67.476
-68.637
-68.332
-66.571
-63.782
-60.436
-56.99
-54.054
-52.212
-51.914
-53.698
-57.09
-60.206
-61.379
-58.786
-51.826
-42.665
-32.304
-20.154
-4.083
22.352
64.425
123.258
197.561
279.591
358.687
425.856
471.518
489.723
477.873
433.496
356.555
247.681
110.318
-45.654
-204.725
-346.179
-451.064
-508.915
-519.996
-495.512
-451.01
-400.342
-352.653
-311.491
-277.056
-247.365
-220.119
-193.063
-164.004
-133.383
-102.931
-74.969
-52.674
-36.819
-26.463
-20.471
-16.87
-14.356
-12.526
-10.755
-8.49
-5.582
-1.966
2.308
6.889
11.438
15.697
19.253
21.731
23.103
23.499
23.105
22.216
21.078
19.928
19.09
18.868
19.415
20.773
22.912
25.75
29.229
33.288
37.811
42.651
47.658
52.701
57.704
62.623
67.411
72.012
76.377
80.478
84.313
87.901
91.255
94.382
97.295
100.017
102.589
105.057
107.473
109.888
112.337
114.847
117.44
120.129
122.922
125.822
128.819
131.897
135.043
138.246
141.495
144.778
148.078
151.374
154.645
157.87
161.026
164.092
167.047
169.872
172.548
175.059
177.388
179.521
181.442
183.137
184.589
185.78
186.696
187.323
187.647
187.655
187.338
186.687
185.695
184.359
182.676
180.647
178.271
175.554
172.498
169.113
165.405
161.387
157.069
152.467
147.595
142.471
137.113
131.541
125.775
119.837
113.749
107.533
101.214
94.813
88.355
81.864
75.363
68.876
62.426
56.035
49.726
43.519
37.435
31.492
25.707
20.097
14.677
9.459
4.455
-0.325
-4.872
-9.179
-13.24
-17.052
-20.611
-23.916
-26.967
-29.767
-32.319
-34.627
-36.696
-38.535
-40.149
-41.549
-42.743
-43.743
-44.56
-45.204
-45.689
-46.028
-46.232
-46.316
-46.293
-46.175
-45.976
-45.709
-45.386
-45.018
-44.617
-44.193
-43.758
-43.32
-42.888
-42.472
-42.078
-41.714
-41.385
-41.098
-40.856
-40.663
-40.521
-40.432
-40.395
-40.412
-40.481
-40.6
-40.767
-40.977
-41.229
-41.517
-41.837
-42.183
-42.547
-42.925
-43.309
-43.693
-44.069
-44.431
-44.771
-45.083
-45.363
-45.604
-45.801
-45.95
-46.045
-46.083
-46.06
-45.973
-45.82
-45.598
-45.307
-44.946
-44.52
-44.031
-43.483
-42.882
-42.233
-41.542
-40.818
-40.066
-39.292
-38.502
-37.7
-36.896
-36.099
-35.318
-34.562
-33.839
-33.161
-32.538
-31.977
-31.486
-31.067
-30.718
-30.443
-30.245
-30.131
-30.113
-30.198
-30.389
-30.691
-31.104
-31.624
-32.244
-32.945
-33.7
-34.487
-35.285
-36.078
-36.855
-37.6
-38.302
-38.951
-39.523
-39.999
-40.369
-40.626
-40.779
-40.853
-40.863
-40.842
-40.847
-40.94
-41.202
-41.71
-42.522
-43.686
-45.244
-47.264
-49.788
-52.813
-56.266
-59.95
-63.637
-67.11
-70.116
-72.354
-73.594
-73.668
-72.58
-70.716
-68.507
-66.411
-65.074
-64.994
-66.455
-69.719
-74.639
-80.411
-86.139
-90.066
-89.365
-81.879
-66.34
-43.331
-15.887
13.455
45.081
82.143
129.396
190.065
260.825
332.913
395.269
435.99
448.624
430.718
380.856
301.358
193.616
61.714
-83.1
-227.352
-353.685
-446.295
-498.944
-512.837
-495.899
-460.04
-414.752
-365.938
-318.656
-276.035
-239.162
-209.011
-183.43
-158.823
-134.397
-110.417
-88.955
-73.241
-63.774
-59.428
-58.562
-58.792
-58.771
-58.025
-56.011
-52.704
-48.387
-43.279
-37.786
-32.413
-27.53
-23.523
-20.806
-19.415
-19.121
-19.691
-20.81
-22.197
-23.652
-24.858
-25.47
-25.328
-24.378
-22.637
-20.195
-17.099
-13.371
-9.116
-4.468
0.427
5.407
10.389
15.335
20.196
24.931
29.483
33.797
37.863
41.693
45.296
48.677
51.837
54.777
57.531
60.147
62.676
65.175
67.679
70.207
72.78
75.414
78.116
80.892
83.732
86.619
89.538
92.481
95.439
98.404
101.36
104.285
107.16
109.962
112.673
115.271
117.739
120.054
122.202
124.168
125.936
127.497
128.836
129.938
130.789
131.376
131.684
131.7
131.412
130.809
129.881
128.623
127.027
125.092
122.816
120.198
117.24
113.947
110.324
106.378
102.118
97.555
92.702
87.573
82.185
76.554
70.7
64.643
58.402
52.002
45.463
38.808
32.061
25.245
18.385
11.504
4.626
-2.225
-9.024
-15.751
-22.38
-28.892
-35.264
-41.479
-47.516
-53.359
-58.992
-64.401
-69.571
-74.493
-79.155
-83.549
-87.669
-91.509
-95.065
-98.337
-101.323
-104.025
-106.445
-108.588
-110.459
-112.065
-113.412
-114.509
-115.367
-115.995
-116.404
-116.607
-116.616
-116.444
-116.104
-115.61
-114.976
-114.215
-113.341
-112.367
-111.308
-110.176
-108.985
-107.747
-106.476
-105.182
-103.877
-102.573
-101.277
-99.999
-98.747
-97.527
-96.345
-95.206
-94.114
-93.071
-92.08
-91.143
-90.261
-89.432
-88.657
-87.932
-87.256
-86.625
-86.035
-85.482
-84.96
-84.465
-83.992
-83.535
-83.089
-82.649
-82.209
-81.763
-81.306
-80.832
-80.335
-79.811
-79.254
-78.66
-78.025
-77.347
-76.626
-75.862
-75.057
-74.211
-73.328
-72.41
-71.461
-70.484
-69.481
-68.452
-67.402
-66.334
-65.254
-64.168
-63.085
-62.009
-60.95
-59.916
-58.911
-57.942
-57.012
-56.119
-55.265
-54.454
-53.693
-52.997
-52.378
-51.84
-51.389
-51.026
-50.742
-50.533
-50.378
-50.25
-50.126
-49.982
-49.801
-49.582
-49.317
-49.001
-48.626
-48.167
-47.601
-46.927
-46.15
-45.285
-44.366
-43.425
-42.511
-41.704
-41.082
-40.723
-40.703
-41.072
-41.869
-43.107
-44.81
-47.038
-49.817
-53.103
-56.746
-60.466
-63.987
-67.103
-69.568
-71.068
-71.342
-70.216
-67.852
-64.828
-61.72
-58.971
-57.042
-56.329
-57.186
-60.012
-63.932
-66.721
-66.532
-61.396
-51.488
-39.651
-26.228
-10.696
9.776
42.262
89.097
149.718
221.21
293.317
357.938
408.358
436.507
440.174
416.579
361.867
276.918
162.791
25.752
-118.724
-253.403
-360.565
-427.469
-454.583
-450.036
-424.707
-389.421
-348.493
-303.086
-256.34
-211.902
-174.006
-145.226
-123.053
-102.996
-82.284
-60.304
-39.66
-23.947
-14.123
-9.646
-8.94
-9.849
-11.627
-13.934
-16.07
-17.777
-18.815
-18.857
-18.03
-16.377
-13.591
-9.801
-5.403
-0.699
3.833
7.874
11.438
14.394
16.505
17.858
18.675
19.242
20.022
21.268
23.019
25.373
28.397
32.033
36.17
40.616
45.11
49.527
53.833
57.994
61.993
65.795
69.37
72.734
75.925
78.956
81.826
84.533
87.082
89.517
91.898
94.27
96.665
99.097
101.574
104.106
106.699
109.351
112.05
114.784
117.546
120.332
123.142
125.968
128.799
131.616
134.398
137.124
139.775
142.331
144.77
147.074
149.226
151.212
153.02
154.636
156.044
157.227
158.17
158.856
159.272
159.402
159.231
158.749
157.946
156.813
155.345
153.537
151.385
148.889
146.049
142.868
139.35
135.501
131.328
126.841
122.051
116.973
111.622
106.014
100.166
94.1
87.836
81.397
74.804
68.081
61.253
54.343
47.377
40.379
33.375
26.389
19.445
12.569
5.784
-0.887
-7.422
-13.801
-20.004
-26.012
-31.809
-37.38
-42.71
-47.787
-52.601
-57.142
-61.403
-65.378
-69.063
-72.455
-75.554
-78.36
-80.876
-83.106
-85.056
-86.732
-88.144
-89.299
-90.209
-90.885
-91.34
-91.586
-91.637
-91.508
-91.213
-90.768
-90.188
-89.489
-88.686
-87.795
-86.832
-85.811
-84.746
-83.651
-82.54
-81.426
-80.321
-79.236
-78.183
-77.17
-76.207
-75.302
-74.462
-73.693
-72.999
-72.383
-71.848
-71.395
-71.025
-70.737
-70.53
-70.403
-70.351
-70.371
-70.459
-70.609
-70.815
-71.071
-71.368
-71.699
-72.055
-72.429
-72.813
-73.197
-73.575
-73.938
-74.28
-74.592
-74.867
-75.098
-75.278
-75.402
-75.465
-75.461
-75.387
-75.241
-75.021
-74.731
-74.372
-73.945
-73.452
-72.9
-72.291
-71.629
-70.919
-70.161
-69.36
-68.523
-67.656
-66.768
-65.868
-64.965
-64.07
-63.193
-62.344
-61.53
-60.755
-60.021
-59.332
-58.692
-58.111
-57.605
-57.183
-56.853
-56.621
-56.489
-56.451
-56.501
-56.617
-56.773
-56.944
-57.111
-57.258
-57.383
-57.476
-57.536
-57.559
-57.524
-57.421
-57.242
-56.986
-56.669
-56.322
-55.974
-55.675
-55.498
-55.508
-55.789
-56.407
-57.411
-58.846
-60.718
-63.046
-65.876
-69.208
-73.002
-77.14
-81.382
-85.459
-89.156
-92.201
-94.284
-95.177
-94.694
-92.935
-90.312
-87.358
-84.615
-82.522
-81.509
-81.954
-84.044
-87.619
-91.474
-93.4
-91.273
-83.193
-69.238
-51.73
-32.12
-11.522
12.308
45.332
91.243
152.338
225.089
299.045
363.34
405.793
418.22
398.138
345.283
263.96
158.818
35.67
-95.638
-224.053
-335.673
-417.57
-463.372
-473.267
-453.32
-413.135
-361.979
-306.588
-253.395
-207.635
-171.189
-144.466
-124.179
-105.008
-85.028
-64.149
-44.61
-30.192
-21.667
-18.143
-18.027
-18.773
-19.127
-18.727
-17.093
-14.323
-10.697
-6.271
-1.398
3.448
7.998
11.879
14.734
16.598
17.605
17.881
17.684
17.224
16.684
16.384
16.61
17.484
19.057
21.301
24.143
27.56
31.498
35.838
40.438
45.135
49.829
54.49
59.097
63.632
68.062
72.335
76.423
80.34
84.09
87.676
91.099
94.348
97.442
100.427
103.353
106.277
109.238
112.25
115.33
118.488
121.733
125.069
128.489
131.975
135.512
139.093
142.71
146.357
150.02
153.677
157.308
160.89
164.402
167.826
171.14
174.323
177.358
180.228
182.92
185.422
187.72
189.798
191.643
193.239
194.572
195.631
196.401
196.871
197.031
196.874
196.394
195.587
194.45
192.982
191.184
189.059
186.611
183.845
180.77
177.392
173.725
169.779
165.568
161.106
156.411
151.499
146.389
141.1
135.651
130.062
124.353
118.546
112.66
106.716
100.736
94.74
88.749
82.782
76.861
71.004
65.23
59.557
54.003
48.582
43.31
38.203
33.272
28.53
23.988
19.656
15.544
11.661
8.012
4.606
1.446
-1.463
-4.117
-6.514
-8.651
-10.528
-12.143
-13.498
-14.593
-15.428
-16.007
-16.331
-16.403
-16.227
-15.808
-15.148
-14.254
-13.131
-11.786
-10.225
-8.454
-6.483
-4.32
-1.973
0.547
3.231
6.068
9.045
12.152
15.376
18.703
22.119
25.61
29.161
32.757
36.38
40.016
43.647
47.256
50.824
54.335
57.771
61.113
64.343
67.443
70.395
73.182
75.786
