Name,Waqar Muhammad
Date of Birth,"Jul 5, 1993"
Recorded Date,2023-08-05 16:17:36 -0500
Classification,High Heart Rate
Symptoms,
Software Version,1.90
Device,"Watch6,7"
Sample Rate,512 hertz


Lead,Lead I
Unit,µV

-48.194
-51.841
-55.457
-59.011
-62.47
-65.784
-68.905
-71.799
-74.407
-76.601
-78.203
-79.111
-79.294
-78.896
-78.134
-77.082
-75.723
-74.064
-72.16
-70.005
-67.606
-64.697
-60.63
-55.265
-48.885
-41.439
-33.991
-27.679
-21.705
-16.513
-10.197
1.1
15.635
31.113
40.998
35.809
15.742
-13.602
-39.521
-47.662
-33.807
-1.84
34.34
61.432
73.244
69.004
58.252
48.923
44.601
47.87
54.427
60.913
66.849
70.853
74.018
77.408
80.527
83.415
85.965
87.889
89.34
90.487
91.346
91.975
92.433
92.712
92.788
92.658
92.308
91.719
90.903
89.865
88.595
87.096
85.371
83.425
81.265
78.897
76.322
73.546
70.579
67.433
64.121
60.655
57.046
53.303
49.438
45.463
41.389
37.229
32.993
28.694
24.346
19.96
15.552
11.135
6.722
2.325
-2.043
-6.368
-10.64
-14.847
-18.979
-23.025
-26.976
-30.822
-34.556
-38.168
-41.652
-45.001
-48.21
-51.273
-54.186
-56.949
-59.56
-62.02
-64.331
-66.497
-68.52
-70.405
-72.157
-73.778
-75.274
-76.646
-77.899
-79.037
-80.067
-80.994
-81.824
-82.564
-83.223
-83.807
-84.323
-84.774
-85.165
-85.5
-85.78
-86.01
-86.196
-86.346
-86.475
-86.595
-86.713
-86.837
-86.969
-87.108
-87.249
-87.379
-87.476
-87.519
-87.483
-87.347
-87.093
-86.707
-86.176
-85.479
-84.585
-83.474
-82.138
-80.579
-78.798
-76.787
-74.548
-72.116
-69.56
-66.978
-64.463
-62.084
-59.929
-58.103
-56.671
-55.657
-54.998
-54.493
-53.926
-53.121
-51.864
-49.939
-47.238
-43.776
-39.837
-36.019
-32.981
-31.274
-31.39
-33.762
-38.564
-45.593
-53.991
-62.205
-68.396
-70.763
-67.578
-57.127
-38.056
-9.595
28.05
73.478
124.515
178.621
232.819
283.38
326.644
359.293
378.374
383.285
374.184
349.943
311.546
259.138
193.187
120.833
48.072
-18.357
-70.49
-109.275
-136.136
-152.748
-163.439
-166.903
-162.022
-149.873
-131.257
-109.937
-89.63
-71.932
-57.881
-47.557
-40.887
-38.323
-39.518
-43.379
-48.618
-53.957
-58.764
-62.922
-66.175
-68.08
-68.524
-67.755
-66.359
-65.149
-64.512
-64.477
-65.089
-66.409
-68.459
-71.188
-74.326
-77.444
-80.291
-82.779
-84.882
-86.634
-88.026
-89.025
-89.661
-90.013
-90.145
-90.101
-89.896
-89.527
-89.01
-88.388
-87.713
-87.03
-86.363
-85.724
-85.12
-84.552
-84.025
-83.543
-83.096
-82.678
-82.285
-81.916
-81.575
-81.264
-80.983
-80.725
-80.484
-80.255
-80.036
-79.828
-79.633
-79.454
-79.297
-79.167
-79.072
-79.018
-79.009
-79.05
-79.142
-79.289
-79.495
-79.761
-80.092
-80.491
-80.962
-81.51
-82.14
-82.854
-83.657
-84.551
-85.54
-86.625
-87.81
-89.097
-90.488
-91.985
-93.59
-95.305
-97.13
-99.068
-101.118
-103.28
-105.553
-107.937
-110.429
-113.029
-115.734
-118.542
-121.45
-124.457
-127.559
-130.753
-134.037
-137.405
-140.855
-144.382
-147.981
-151.647
-155.375
-159.16
-162.997
-166.882
-170.808
-174.772
-178.769
-182.793
-186.84
-190.904
-194.981
-199.067
-203.157
-207.248
-211.335
-215.417
-219.491
-223.556
-227.609
-231.648
-235.673
-239.682
-243.674
-247.649
-251.605
-255.544
-259.466
-263.375
-267.274
-271.167
-275.059
-278.957
-282.869
-286.801
-290.762
-294.759
-298.802
-302.898
-307.056
-311.285
-315.592
-319.987
-324.479
-329.078
-333.796
-338.642
-343.627
-348.762
-354.056
-359.517
-365.157
-370.985
-377.007
-383.23
-389.666
-396.326
-403.229
-410.387
-417.799
-425.465
-433.375
-441.511
-449.855
-458.375
-467.027
-475.772
-484.571
-493.396
-502.228
-511.047
-519.821
-528.514
-537.076
-545.467
-553.668
-561.666
-569.446
-577.012
-584.379
-591.582
-598.696
-605.784
-612.877
-619.983
-627.073
-634.105
-641.054
-647.892
-654.59
-661.108
-667.38
-673.327
-678.881
-683.957
-688.433
-692.149
-694.883
-696.412
-696.576
-695.249
-692.348
-687.824
-681.61
-673.641
-663.88
-652.302
-638.889
-623.651
-606.58
-587.678
-567.02
-544.737
-521.036
-496.162
-470.308
-443.641
-416.322
-388.49
-360.309
-331.966
-303.629
-275.461
-247.656
-220.385
-193.837
-168.212
-143.629
-120.143
-97.749
-76.388
-56.025
-36.643
-18.207
-0.67
16.034
32.012
47.366
62.187
76.605
90.736
104.697
118.611
132.528
146.439
160.294
174.015
187.524
200.756
213.617
225.987
237.764
248.802
258.936
268.079
276.182
283.287
289.565
295.208
300.398
305.413
310.599
316.164
322.188
328.489
334.589
340.039
344.55
347.916
349.992
350.811
350.649
350.273
351.033
354.479
361.966
374.487
393.079
418.777
452.288
493.79
541.448
591.659
641.654
689.841
737.443
787.461
838.602
884.685
914.701
916.841
887.184
830.793
759.941
687.71
621.201
561.466
505.739
452.53
403.653
362.386
331.956
313.526
306.395
309.463
321.199
339.578
362.192
386.389
409.883
431.068
448.818
462.209
470.798
474.775
475.096
473.524
471.805
471.349
473.471
478.181
485.174
495.614
509.435
527.918
552.582
579.667
606.605
630.082
645.912
657.282
666.956
676.914
690.492
705.513
719.707
732.563
742.657
750.803
758.05
764.181
769.302
773.297
775.96
777.485
778.047
777.702
776.565
774.798
772.603
770.192
767.722
765.296
762.974
760.811
758.867
757.186
755.782
754.664
753.825
753.253
752.95
752.907
753.08
753.398
753.758
754.036
754.147
754.035
753.656
752.987
752.008
750.707
749.094
747.193
745.022
742.595
739.919
736.993
733.836
730.476
726.947
723.292
719.538
715.698
711.783
707.797
703.739
699.602
695.369
691.015
686.523
681.878
677.071
672.092
666.932
661.578
656.019
650.244
644.244
638.012
631.543
624.831
617.875
610.674
603.232
595.553
587.642
579.505
571.146
562.572
553.788
544.802
535.624
526.262
516.727
507.029
497.183
487.201
477.099
466.891
456.591
446.216
435.781
425.299
414.788
404.26
393.73
383.214
372.724
362.274
351.878
341.548
331.297
321.135
311.073
301.12
291.284
281.575
271.997
262.559
253.264
244.118
235.125
226.288
217.608
209.087
200.724
192.518
184.466
176.565
168.814
161.207
153.742
146.416
139.225
132.164
125.23
118.419
111.726
105.145
98.671
92.296
86.013
79.818
73.705
67.669
61.706
55.813
49.987
44.232
38.55
32.941
27.404
21.937
16.54
11.212
5.954
0.765
-4.354
-9.404
-14.377
-19.262
-24.045
-28.718
-33.279
-37.738
-42.099
-46.359
-50.512
-54.547
-58.45
-62.201
-65.761
-69.078
-72.097
-74.774
-77.088
-79.036
-80.619
-81.839
-82.685
-83.134
-83.161
-82.751
-81.898
-80.618
-78.944
-76.928
-74.649
-72.204
-69.718
-67.32
-65.055
-62.867
-60.605
-58.094
-55.283
-52.271
-49.155
-45.903
-42.493
-39.021
-35.796
-33.166
-31.11
-29.186
-26.772
-23.509
-19.3
-13.972
-6.962
2.444
14.587
29.368
46.25
64.904
85.513
108.127
132.186
156.753
180.892
203.786
225.148
244.668
261.381
274.413
283.566
289.152
291.823
292.416
291.287
288.631
285.369
282.634
281.089
281.013
282.33
284.72
288.279
293.432
299.976
307.242
314.773
322.249
329.513
336.632
343.377
349.139
353.699
357.265
359.996
362.156
364.053
365.788
367.541
369.694
372.473
375.825
379.539
383.114
385.786
386.929
386.225
383.476
378.518
371.499
363.023
354.186
346.748
342.621
343.085
349.074
361.711
381.908
410.026
445.829
486.928
529.273
570.074
607.612
643.045
679.397
715.365
745.275
759.006
745.549
702.702
636.995
559.783
484.075
415.396
352.718
296.711
247.62
208.905
186.124
177.288
178.86
186.298
193.476
199.828
205.21
208.736
211.101
211.165
208.255
203.342
197.066
190.576
185.187
181.291
178.922
177.959
177.962
178.487
179.182
179.629
179.398
178.282
176.232
173.292
169.63
165.4
160.719
155.722
150.55
145.32
140.153
135.179
130.474
126.095
122.093
118.49
115.309
112.572
110.273
108.384
106.877
105.719
104.886
104.363
104.124
104.132
104.346
104.717
105.213
105.816
106.512
107.29
108.144
109.068
110.067
111.155
112.342
113.632
115.025
116.515
118.104
119.793
121.581
123.467
125.445
127.506
129.641
131.841
134.092
136.381
138.689
140.996
143.286
145.54
147.742
149.872
151.915
153.849
155.658
157.324
158.828
160.153
161.278
162.187
162.861
163.286
163.444
163.322
162.906
162.182
161.141
159.773
158.069
156.023
153.629
150.885
147.789
144.34
140.542
136.397
131.91
127.089
121.941
116.478
110.709
104.649
98.312
91.714
84.871
77.802
70.526
63.064
55.435
47.662
39.767
31.773
23.703
15.579
7.426
-0.735
-8.879
-16.986
-25.033
-33
-40.866
-48.612
-56.221
-63.676
-70.96
-78.06
-84.961
-91.653
-98.123
-104.363
-110.364
-116.12
-121.624
-126.873
-131.863
-136.594
-141.064
-145.275
-149.229
-152.929
-156.38
-159.588
-162.558
-165.297
-167.815
-170.12
-172.222
-174.131
-175.858
-177.414
-178.809
-180.057
-181.167
-182.151
-183.019
-183.783
-184.452
-185.037
-185.548
-185.993
-186.382
-186.723
-187.024
-187.293
-187.536
-187.759
-187.969
-188.169
-188.363
-188.556
-188.75
-188.947
-189.146
-189.348
-189.554
-189.761
-189.969
-190.172
-190.369
-190.556
-190.727
-190.878
-191.005
-191.1
-191.159
-191.177
-191.147
-191.065
-190.925
-190.723
-190.453
-190.111
-189.694
-189.198
-188.62
-187.956
-187.206
-186.366
-185.437
-184.418
-183.31
-182.114
-180.833
-179.473
-178.039
-176.539
-174.979
-173.367
-171.712
-170.023
-168.309
-166.577
-164.835
-163.091
-161.356
-159.643
-157.963
-156.323
-154.733
-153.205
-151.748
-150.373
-149.084
-147.883
-146.775
-145.767
-144.872
-144.107
-143.482
-143.001
-142.664
-142.471
-142.421
-142.505
-142.704
-142.985
-143.314
-143.666
-144.02
-144.363
-144.667
-144.893
-144.999
-144.943
-144.698
-144.252
-143.592
-142.706
-141.601
-140.298
-138.837
-137.289
-135.723
-134.196
-132.776
-131.525
-130.496
-129.786
-129.51
-129.721
-130.401
-131.435
-132.6
-133.677
-134.469
-134.703
-134.037
-132.229
-129.216
-125.234
-120.833
-116.581
-112.921
-110.266
-109.02
-109.36
-111.113
-113.475
-114.96
-113.871
-108.545
-97.326
-78.623
-51.177
-14.26
31.811
85.592
145.013
207.404
269.427
327.349
377.408
416.095
440.946
450.525
443.925
421.402
384.76
336.872
281.375
222.337
163.286
107.549
58.9
20.305
-6.826
-22.145
-26.438
-21.209
-7.682
12.444
36.219
60.738
83.848
103.876
120.148
132.485
140.309
143.572
143.326
140.91
137.639
134.797
132.913
132.24
133.394
136.629
141.685
148.106
155.161
162.061
168.492
174.324
179.312
183.425
186.739
189.379
191.702
194.083
196.705
199.661
203.006
206.716
210.791
215.245
220.016
225.04
230.267
235.659
241.206
246.9
252.711
258.59
264.477
270.319
276.082
281.742
287.28
292.681
297.928
303.01
307.924
312.667
317.231
321.611
325.792
329.765
333.527
337.076
340.417
343.553
346.48
349.197
351.7
353.985
356.048
357.884
359.484
360.845
361.962
362.835
363.463
363.846
363.985
363.879
363.529
362.936
362.099
361.02
359.698
358.135
356.333
354.295
352.022
349.519
346.789
343.837
340.666
337.282
333.69
329.896
325.904
321.722
317.356
312.813
308.102
303.229
298.206
293.039
287.739
282.317
276.781
271.143
265.413
259.602
253.722
247.783
241.798
235.778
229.735
223.681
217.628
211.588
205.573
199.595
193.663
187.79
181.984
176.257
170.618
165.075
159.638
154.314
149.11
144.034
139.09
134.285
129.623
125.107
120.741
116.526
112.465
108.559
104.806
101.207
97.761
94.465
91.316
88.31
85.444
82.713
80.11
77.631
75.27
73.018
70.871
68.82
66.859
64.98
63.175
61.437
59.758
58.131
56.548
55.002
53.485
51.991
50.514
49.046
47.582
46.117
44.644
43.159
41.657
40.135
38.588
37.014
35.411
33.776
32.11
30.412
28.684
26.926
25.139
23.326
21.49
19.634
17.76
15.874
13.978
12.078
10.178
8.285
6.402
4.536
2.691
0.873
-0.914
-2.663
-4.371
-6.033
-7.644
-9.201
-10.699
-12.133
-13.502
-14.801
-16.029
-17.185
-18.267
-19.277
-20.218
-21.094
-21.909
-22.668
-23.376
-24.039
-24.665
-25.26
-25.827
-26.372
-26.9
-27.418
-27.936
-28.463
-29.007
-29.576
-30.178
-30.824
-31.521
-32.274
-33.085
-33.955
-34.89
-35.899
-36.998
-38.199
-39.509
-40.934
-42.477
-44.133
-45.894
-47.743
-49.644
-51.57
-53.495
-55.398
-57.269
-59.089
-60.835
-62.48
-63.997
-65.363
-66.569
-67.593
-68.428
-69.099
-69.644
-70.127
-70.632
-71.212
-71.923
-72.838
-74.017
-75.534
-77.462
-79.822
-82.66
-86.065
-90.036
-94.526
-99.372
-104.193
-108.628
-112.421
-115.234
-116.748
-116.874
-115.618
-113.365
-111.009
-109.274
-108.64
-109.591
-112.348
-116.656
-121.976
-126.999
-129.515
-127.587
-119.697
-104.236
-79.968
-46.453
-3.729
45.778
97.088
146.25
190.67
230.655
268.966
304.452
330.876
337.895
315.182
260.636
181.909
93.724
11.063
-57.539
-111.106
-154.284
-189.878
-217.042
-232.435
-230.401
-212.661
-187.256
-162.75
-149.76
-150.565
-158.866
-169.464
-176.04
-176.632
-175.553
-174.783
-175.239
-177.005
-177.741
-176.569
-174.051
-170.601
-166.971
-163.778
-161.225
-159.468
-158.665
-158.784
-159.651
-161.153
-163.19
-165.648
-168.456
-171.527
-174.743
-178.006
-181.214
-184.275
-187.126
-189.718
-192.02
-194.013
-195.686
-197.048
-198.128
-198.957
-199.56
-199.96
-200.168
-200.209
-200.118
-199.935
-199.707
-199.468
-199.237
-199.029
-198.855
-198.72
-198.623
-198.559
-198.506
-198.455
-198.398
-198.329
-198.249
-198.154
-198.036
-197.89
-197.714
-197.504
-197.262
-196.99
-196.688
-196.361
-196.016
-195.66
-195.304
-194.958
-194.628
-194.323
-194.052
-193.822
-193.642
-193.519
-193.461
-193.476
-193.573
-193.76
-194.045
-194.438
-194.945
-195.574
-196.333
-197.229
-198.27
-199.459
-200.804
-202.309
-203.978
-205.815
-207.824
-210.005
-212.36
-214.891
-217.597
-220.478
-223.532
-226.756
-230.147
-233.702
-237.414
-241.28
-245.292
-249.444
-253.729
-258.14
-262.669
-267.308
-272.047
-276.879
-281.792
-286.779
-291.829
-296.932
-302.077
-307.255
-312.454
-317.666
-322.878
-328.082
-333.265
-338.419
-343.532
-348.595
-353.597
-358.529
-363.379
-368.14
-372.802
-377.355
-381.792
-386.104
-390.284
-394.323
-398.215
-401.954
-405.533
-408.946
-412.188
-415.254
-418.14
-420.841
-423.353
-425.674
-427.801
-429.732
-431.464
-432.998
-434.331
-435.465
-436.4
-437.138
-437.68
-438.03
-438.191
-438.167
-437.962
-437.584
-437.038
-436.329
-435.466
-434.456
-433.307
-432.029
-430.63
-429.12
-427.509
-425.807
-424.026
-422.176
-420.267
-418.312
-416.321
-414.307
-412.28
-410.253
-408.237
-406.245
-404.287
-402.376
-400.524
-398.744
-397.045
-395.44
-393.938
-392.551
-391.291
-390.166
-389.187
-388.363
-387.704
-387.221
-386.924
-386.821
-386.923
-387.236
-387.769
-388.529
-389.522
-390.752
-392.222
-393.937
-395.899
-398.114
-400.586
-403.315
-406.307
-409.566
-413.096
-416.898
-420.973
-425.313
-429.914
-434.776
-439.897
-445.281
-450.924
-456.817
-462.954
-469.328
-475.927
-482.734
-489.717
-496.835
-504.052
-511.342
-518.684
-526.062
-533.454
-540.826
-548.154
-555.42
-562.616
-569.741
-576.788
-583.739
-590.603
-597.417
-604.24
-611.151
-618.205
-625.422
-632.819
-640.424
-648.277
-656.435
-664.933
-673.77
-682.921
-692.369
-702.132
-712.181
-722.39
-732.496
-742.121
-750.898
-758.589
-765.048
-770.138
-773.875
-776.407
-778.065
-779.508
-781.421
-784.299
-788.368
-793.504
-799.162
-804.647
-809.092
-811.161
-809.426
-802.505
-789.4
-770.01
-745.024
-715.466
-682.767
-649.069
-616.947
-589.469
-569.64
-559.512
-560.391
-573.201
-598.141
-634.336
-679.959
-732.1
-787.246
-842.249
-894.133
-939.855
-976.981
-1004.196
-1021.231
-1028.95
-1029.059
-1023.317
-1013.686
-1002.605
-992.265
-984.096
-978.852
-976.541
-976.645
-978.645
-981.904
-985.424
-988.281
-989.913
-990.071
-988.879
-986.651
-983.634
-980.071
-976.28
-972.552
-969.042
-965.776
-962.646
-959.483
-956.133
-952.456
-948.321
-943.591
-938.173
-932.014
-925.076
-917.352
-908.836
-899.52
-889.407
-878.505
-866.822
-854.375
-841.19
-827.29
-812.704
-797.472
-781.633
-765.234
-748.311
-730.888
-712.982
-694.609
-675.789
-656.544
-636.896
-616.865
-596.478
-575.767
-554.781
-533.565
-512.164
-490.614
-468.935
-447.143
-425.26
-403.311
-381.323
-359.315
-337.283
-315.217
-293.115
-270.972
-248.782
-226.527
-204.156
-181.627
-158.92
-136.025
-112.968
-89.79
-66.529
-43.231
-19.96
3.201
26.134
48.7
70.793
92.308
113.142
133.187
152.294
170.336
187.223
202.888
217.307
230.481
242.41
253.116
262.664
271.142
278.68
285.439
291.542
297.104
302.246
307.086
311.777
316.461
321.242
326.205
331.413
336.916
342.767
349.008
355.637
362.64
369.977
377.585
385.435
393.507
401.779
410.234
418.84
427.57
436.419
445.393
454.497
463.736
473.108
482.61
492.259
502.075
512.082
522.309
532.767
543.455
554.373
565.511
576.858
588.397
600.102
611.938
623.873
635.879
647.926
659.989
672.034
684.029
695.939
707.732
719.38
730.854
742.13
753.184
763.996
774.551
784.834
794.836
804.548
813.961
823.068
831.866
840.352
848.524
856.385
863.939
871.19
878.148
884.823
891.23
897.383
903.298
908.993
914.486
919.797
924.945
929.95
934.833
939.615
944.314
948.952
953.546
958.116
962.679
967.249
971.842
976.469
981.141
985.867
990.653
995.502
1000.416
1005.393
1010.432
1015.528
1020.673
1025.86
1031.078
1036.316
1041.56
1046.797
1052.009
1057.179
1062.286
1067.307
1072.22
1077.001
1081.627
1086.074
1090.317
1094.332
1098.091
1101.576
1104.763
1107.631
1110.155
1112.304
1114.055
1115.394
1116.313
1116.807
1116.878
1116.529
1115.771
1114.634
1113.144
1111.326
1109.206
1106.796
1104.111
1101.175
1098.022
1094.692
1091.217
1087.607
1083.861
1079.976
1075.944
1071.746
1067.341
1062.647
1057.586
1052.094
1046.117
1039.635
1032.62
1025.042
1016.884
1008.125
998.763
988.849
978.442
967.586
956.376
944.891
933.221
921.616
910.324
899.575
889.758
881.22
874.148
868.809
865.431
863.885
864.154
866.184
869.085
871.927
874.406
876.042
877.476
880.865
886.15
892.662
899.666
904.051
906.727
911.833
923.558
948.71
989.749
1043.118
1101.936
1153.424
1184.946
1188.987
1163.514
1115.525
1055.906
992.392
929.102
864.167
795.938
728.904
669.931
627.916
606.194
599.43
601.027
603.249
602.48
600.625
598.186
595.593
592.521
586.752
577.878
566.76
554.162
541.511
530.027
520.09
511.911
505.485
500.441
496.366
492.911
489.652
486.179
482.308
477.958
473.126
467.932
462.498
456.912
451.286
445.74
440.349
435.19
430.347
425.865
421.791
418.167
415.004
412.309
410.088
408.325
406.994
406.066
405.501
405.261
405.317
405.629
406.154
406.839
407.623
408.454
409.292
410.103
410.857
411.532
412.103
412.559
412.895
413.107
413.186
413.125
412.909
412.531
411.985
411.268
410.377
409.31
408.061
406.625
404.999
403.179
401.159
398.933
396.493
393.833
390.948
387.837
384.496
380.925
377.122
373.086
368.819
364.322
359.594
354.638
349.453
344.042
338.406
332.549
326.474
320.184
313.684
306.978
300.074
292.976
285.692
278.228
270.593
262.794
254.84
246.742
238.509
230.151
221.68
213.109
204.449
195.715
186.919
178.076
169.201
160.308
151.412
142.529
133.673
124.86
116.105
107.424
98.831
90.341
81.969
73.728
65.632
57.693
49.924
42.335
34.936
27.738
20.748
13.973
7.42
1.094
-5.001
-10.863
-16.49
-21.881
-27.038
-31.962
-36.658
-41.13
-45.383
-49.426
-53.265
-56.91
-60.372
-63.66
-66.788
-69.767
-72.61
-75.33
-77.941
-80.457
-82.891
-85.257
-87.57
-89.843
-92.09
-94.325
-96.561
-98.81
-101.083
-103.393
-105.749
-108.16
-110.634
-113.177
-115.797
-118.498
-121.283
-124.155
-127.116
-130.167
-133.306
-136.533
-139.843
-143.234
-146.698
-150.232
-153.827
-157.478
-161.175
-164.91
-168.677
-172.465
-176.267
-180.075
-183.878
-187.667
-191.433
-195.167
-198.859
-202.501
-206.085
-209.604
-213.053
-216.427
-219.726
-222.948
-226.092
-229.157
-232.146
-235.058
-237.895
-240.658
-243.348
-245.966
-248.517
-251.006
-253.439
-255.822
-258.161
-260.463
-262.736
-264.986
-267.221
-269.445
-271.663
-273.886
-276.122
-278.383
-280.688
-283.049
-285.475
-287.975
-290.554
-293.212
-295.944
-298.734
-301.555
-304.387
-307.202
-309.971
-312.672
-315.272
-317.749
-320.083
-322.247
-324.226
-326.009
-327.589
-328.969
-330.157
-331.172
-332.064
-332.913
-333.801
-334.832
-336.093
-337.686
-339.758
-342.348
-345.417
-348.867
-352.486
-356.106
-359.66
-362.97
-365.75
-367.975
-369.776
-371.48
-373.722
-376.832
-380.776
-385.682
-391.744
-398.758
-406.211
-413.052
-417.585
-418.591
-415.402
-407.136
-392.858
-372.029
-344.441
-310.835
-272.978
-232.385
-190.465
-149.234
-111.03
-78.489
-54.306
-40.125
-36.995
-45.016
-63.613
-92.841
-131.143
-177.96
-232.383
-288.527
-341.68
-385.671
-414.311
-430.216
-436.252
-435.501
-433.201
-428.638
-421.417
-413.636
-405.614
-399.212
-396.107
-395.817
-397.817
-401.501
-405.797
-409.705
-412.706
-414.488
-414.946
-414.404
-413.237
-411.697
-410.177
-409.105
-408.668
-408.969
-410.018
-411.662
-413.776
-416.274
-419.007
-421.824
-424.619
-427.273
-429.723
-431.94
-433.871
-435.47
-436.709
-437.563
-438.03
-438.122
-437.843
-437.204
-436.229
-434.936
-433.356
-431.523
-429.467
-427.228
-424.836
-422.313
-419.678
-416.943
-414.118
-411.211
-408.223
-405.149
-401.988
-398.741
-395.406
-391.988
-388.489
-384.907
-381.244
-377.499
-373.675
-369.775
-365.806
-361.775
-357.689
-353.559
-349.394
-345.208
-341.013
-336.82
-332.639
-328.479
-324.351
-320.266
-316.233
-312.264
-308.368
-304.557
-300.841
-297.233
-293.742
-290.38
-287.156
-284.08
-281.159
-278.404
-275.82
-273.416
-271.196
-269.166
-267.332
-265.696
-264.262
-263.032
-262.008
-261.188
-260.573
-260.161
-259.95
-259.934
-260.111
-260.476
-261.022
-261.742
-262.631
-263.679
-264.878
-266.219
-267.692
-269.286
-270.989
-272.791
-274.679
-276.642
-278.666
-280.74
-282.851
-284.987
-287.138
-289.29
-291.434
-293.558
-295.652
-297.707
-299.713
-301.663
-303.549
-305.363
-307.101
-308.755
-310.322
-311.798
-313.179
-314.463
-315.647
-316.731
-317.714
-318.596
-319.379
-320.063
-320.65
-321.144
-321.547
-321.862
-322.095
-322.248
-322.326
-322.335
-322.278
-322.161
-321.988
-321.764
-321.493
-321.178
-320.825
-320.435
-320.012
-319.556
-319.069
-318.553
-318.007
-317.432
-316.827
-316.191
-315.522
-314.819
-314.078
-313.297
-312.473
-311.6
-310.674
-309.692
-308.648
-307.537
-306.352
-305.089
-303.741
-302.303
-300.77
-299.136
-297.395
-295.541
-293.571
-291.48
-289.266
-286.925
-284.456
-281.858
-279.134
-276.286
-273.319
-270.235
-267.04
-263.74
-260.34
-256.848
-253.269
-249.609
-245.875
-242.075
-238.222
-234.326
-230.399
-226.451
-222.496
-218.548
-214.62
-210.723
-206.865
-203.053
-199.297
-195.615
-192.025
-188.543
-185.176
-181.931
-178.815
-175.83
-172.971
-170.222
-167.554
-164.942
-162.368
-159.821
-157.3
-154.792
-152.277
-149.728
-147.122
-144.455
-141.728
-138.939
-136.081
-133.166
-130.238
-127.373
-124.662
-122.17
-119.923
-117.946
-116.282
-114.985
-114.12
-113.747
-113.864
-114.475
-115.629
-117.308
-119.437
-121.837
-124.124
-125.9
-126.894
-126.788
-125.258
-122.257
-117.827
-112.261
-106.358
-100.743
-95.819
-92.224
-90.395
-90.156
-91.056
-92.026
-91.088
-86.698
-77.643
-61.979
-38.064
-5.412
36.04
84.234
134.697
185.019
233.378
277.817
318.959
352.92
372.974
374.98
352.556
305.657
240.842
162.453
81.127
7.11
-54.967
-97.396
-120.108
-129.611
-129.437
-126.073
-122.866
-117.349
-109.843
-101.118
-92.032
-85.478
-82.629
-82.882
-85.461
-89.182
-92.787
-95.391
-96.512
-95.902
-93.68
-90.297
-86.181
-81.704
-77.305
-73.385
-70.153
-67.714
-66.032
-64.941
-64.296
-63.974
-63.829
-63.713
-63.499
-63.061
-62.273
-61.049
-59.318
-57.018
-54.116
-50.588
-46.412
-41.588
-36.136
-30.08
-23.451
-16.279
-8.588
-0.411
8.208
17.216
26.553
36.167
46.024
56.09
66.338
76.743
87.283
97.941
108.712
119.583
130.54
141.561
152.622
163.7
174.776
185.831
196.843
207.789
218.642
229.376
239.966
250.383
260.6
270.585
280.306
289.734
298.843
307.606
315.998
323.997
331.579
338.724
345.413
351.629
357.354
362.573
367.271
371.438
375.063
378.138
380.658
382.619
384.019
384.86
385.145
384.879
384.069
382.726
380.859
378.483
375.613
372.265
368.457
364.21
359.543
354.48
349.045
343.264
337.161
330.763
324.099
317.196
310.082
302.787
295.338
287.763
280.091
272.351
264.569
256.773
248.989
241.242
233.558
225.958
218.465
211.1
203.88
196.823
189.945
183.26
176.78
170.516
164.478
158.674
153.11
147.792
142.722
137.903
133.334
129.015
124.944
121.116
117.527
114.171
111.041
108.129
105.427
102.926
100.616
98.488
96.53
94.732
93.083
91.57
90.184
88.912
87.745
86.671
85.682
84.768
83.919
83.13
82.392
81.698
81.043
80.421
79.827
79.256
78.706
78.174
77.657
77.153
76.664
76.188
75.727
75.281
74.853
74.444
74.057
73.695
73.361
73.056
72.785
72.55
72.354
72.201
72.095
72.036
72.028
72.072
72.17
72.323
72.53
72.786
73.09
73.439
73.829
74.255
74.713
75.198
75.705
76.233
76.779
77.338
77.903
78.466
79.021
79.563
80.083
80.574
81.028
81.437
81.798
82.113
82.378
82.588
82.734
82.801
82.78
82.67
82.466
82.166
81.773
81.294
80.746
80.159
79.556
78.955
78.37
77.81
77.292
76.845
76.485
76.236
76.112
76.121
76.272
76.566
76.979
77.47
77.996
78.499
78.93
79.242
79.366
79.239
78.797
77.983
76.751
75.027
72.776
70.037
66.939
63.723
60.68
58.045
56.049
55.016
55.155
56.447
58.645
61.168
63.358
64.805
65.164
63.952
60.888
56.209
50.707
45.845
43.379
44.658
50.978
64.051
85.476
116.271
155.588
200.378
247.254
292.894
337.217
383.201
430.135
475.455
511.493
523.445
503.388
448.962
362.531
258.05
148.86
45.631
-38.799
-96.343
-123.733
-120.886
-94.177
-57.108
-22.525
1.18
8.498
3.528
-5.071
-12.42
-13.849
-9.83
-5.447
-2.586
-2.083
-3.356
-3.721
-2.291
0.566
4.5
8.715
12.716
16.376
19.388
21.534
22.811
23.321
23.234
22.689
21.786
20.628
19.342
18.075
16.961
16.089
15.501
15.236
15.319
15.766
16.593
17.796
19.346
21.213
23.364
25.772
28.415
31.265
34.288
37.44
40.67
43.94
47.226
50.513
53.789
57.049
60.285
63.502
66.713
69.93
73.161
76.41
79.675
82.96
86.269
89.609
92.984
96.396
99.843
103.322
106.83
110.361
113.909
117.463
121.009
124.535
128.029
131.479
134.875
138.203
141.45
144.603
147.649
150.575
153.367
156.01
158.49
160.794
162.908
164.819
166.515
167.986
169.219
170.207
170.941
171.414
171.62
171.555
171.214
170.596
169.7
168.527
167.079
165.36
163.376
161.135
158.645
155.918
152.965
149.802
146.442
142.903
139.202
135.356
131.385
127.308
123.146
118.919
114.649
110.357
106.064
101.79
97.557
93.383
89.288
85.289
81.403
77.646
74.031
70.572
67.281
64.168
61.242
58.51
55.98
53.653
51.533
49.62
47.912
46.406
45.097
43.979
43.043
42.279
41.678
41.227
40.914
40.724
40.643
40.655
40.746
40.898
41.095
41.321
41.559
41.793
42.01
42.193
42.329
42.405
42.41
42.332
42.163
41.894
41.516
41.023
40.41
39.675
38.814
37.828
36.716
35.481
34.127
32.658
31.082
29.404
27.633
25.778
23.849
21.857
19.813
17.729
15.617
13.487
11.354
9.229
7.124
5.051
3.019
1.039
-0.88
-2.729
-4.504
-6.201
-7.817
-9.349
-10.796
-12.158
-13.437
-14.635
-15.753
-16.791
-17.752
-18.641
-19.466
-20.237
-20.96
-21.643
-22.296
-22.93
-23.556
-24.185
-24.825
-25.478
-26.154
-26.868
-27.637
-28.481
-29.416
-30.449
-31.587
-32.839
-34.205
-35.685
-37.267
-38.922
-40.634
-42.39
-44.18
-45.999
-47.824
-49.621
-51.364
-53.025
-54.583
-56.031
-57.364
-58.573
-59.681
-60.714
-61.7
-62.701
-63.768
-64.945
-66.305
-67.9
-69.786
-72.058
-74.82
-78.111
-81.896
-86.028
-90.252
-94.334
-98.084
-101.264
-103.585
-104.872
-105.216
-104.999
-104.887
-105.511
-107.175
-110.099
-114.58
-120.649
-127.848
-135.187
-140.994
-143.504
-141.479
-133.759
-119.156
-96.847
-66.291
-27.862
16.767
65.623
115.647
163.482
207.143
243.42
271.281
290.669
297.544
291.039
268.13
224.64
164.53
89.858
7.608
-69.271
-134.305
-179.539
-202.893
-211.879
-211.126
-206.616
-202.074
-194.941
-185.197
-173.95
-162.283
-153.157
-147.917
-146.102
-146.987
-149.424
-152.178
-154.261
-155.129
-154.557
-152.624
-149.74
-146.313
-142.663
-139.219
-136.416
-134.474
-133.483
-133.396
-134.014
-135.183
-136.788
-138.665
-140.659
-142.634
-144.448
-146.003
-147.262
-148.178
-148.725
-148.889
-148.648
-147.999
-146.967
-145.574
-143.854
-141.835
-139.54
-137
-134.252
-131.342
-128.323
-125.234
-122.099
-118.937
-115.758
-112.57
-109.383
-106.196
-102.997
-99.78
-96.539
-93.273
-89.985
-86.676
-83.344
-79.984
-76.596
-73.179
-69.739
-66.281
-62.811
-59.337
-55.869
-52.418
-49.002
-45.633
-42.324
-39.088
-35.934
-32.878
-29.932
-27.11
-24.423
-21.885
-19.51
-17.311
-15.303
-13.5
-11.914
-10.558
-9.443
-8.581
-7.981
-7.654
-7.607
-7.847
-8.38
-9.211
-10.344
-11.78
-13.52
-15.562
-17.904
-20.542
-23.47
-26.681
-30.165
-33.912
-37.91
-42.146
-46.607
-51.275
-56.135
-61.17
-66.361
-71.688
-77.133
-82.674
-88.291
-93.962
-99.665
-105.379
-111.083
-116.756
-122.376
-127.923
-133.379
-138.724
-143.941
-149.013
-153.924
-158.66
-163.208
-167.556
-171.694
-175.613
-179.306
-182.768
-185.994
-188.983
-191.732
-194.242
-196.515
-198.555
-200.365
-201.951
-203.319
-204.477
-205.433
-206.196
-206.776
-207.184
-207.43
-207.525
-207.481
-207.31
-207.023
-206.632
-206.147
-205.58
-204.94
-204.237
-203.48
-202.676
-201.833
-200.959
-200.057
-199.134
-198.192
-197.233
-196.26
-195.274
-194.273
-193.256
-192.221
-191.163
-190.08
-188.967
-187.818
-186.627
-185.389
-184.095
-182.741
-181.32
-179.824
-178.245
-176.578
-174.816
-172.953
-170.984
-168.904
-166.71
-164.397
-161.968
-159.422
-156.761
-153.987
-151.104
-148.115
-145.026
-141.844
-138.573
-135.218
-131.786
-128.287
-124.732
-121.134
-117.505
-113.857
-110.203
-106.558
-102.937
-99.352
-95.81
-92.32
-88.894
-85.548
-82.305
-79.186
-76.203
-73.367
-70.688
-68.169
-65.812
-63.608
-61.533
-59.568
-57.698
-55.913
-54.214
-52.596
-51.041
-49.524
-48.017
-46.498
-44.961
-43.397
-41.79
-40.157
-38.526
-36.953
-35.52
-34.276
-33.254
-32.502
-32.059
-31.984
-32.351
-33.199
-34.577
-36.582
-39.224
-42.445
-46.113
-49.885
-53.382
-56.322
-58.36
-59.13
-58.525
-56.62
-53.752
-50.774
-48.533
-47.556
-48.348
-51.284
-56.255
-62.727
-69.588
-74.796
-76.125
-71.802
-60.278
-40.056
-10.167
29.43
78.032
132.705
188.658
242.931
293.186
337.758
377.493
408.776
425.276
423.024
396.815
347.504
280.922
200.895
114.73
30.141
-44.762
-99.745
-129.697
-136.399
-128.008
-114.723
-103.019
-94.102
-84.74
-72.56
-58.17
-43.825
-32.459
-25.089
-21.04
-19.501
-19.599
-20.851
-22.625
-23.962
-24.418
-24.031
-22.999
-21.61
-19.92
-17.746
-15.329
-13.214
-11.674
-10.807
-10.556
-10.706
-11.198
-12.139
-13.421
-14.758
-15.937
-16.785
-17.23
-17.334
-17.101
-16.476
-15.45
-14.054
-12.331
-10.344
-8.129
-5.682
-3.016
-0.158
2.857
5.973
9.151
12.372
15.623
18.898
22.192
25.501
28.823
32.17
35.548
38.965
42.422
45.915
49.442
53.004
56.603
60.244
63.927
67.648
71.403
75.184
78.984
82.792
86.598
90.385
94.14
97.85
101.502
105.083
108.581
111.98
115.267
118.427
121.445
124.307
126.996
129.498
131.799
133.883
135.739
137.352
138.712
139.806
140.626
141.161
141.406
141.353
140.997
140.336
139.367
138.091
136.509
134.625
132.443
129.969
127.213
124.183
120.891
117.351
113.576
109.582
105.387
101.009
96.467
91.781
86.972
82.063
77.074
72.029
66.95
61.86
56.781
51.735
46.745
41.831
37.014
32.314
27.747
23.332
19.084
15.017
11.143
7.473
4.017
0.782
-2.227
-5.005
-7.55
-9.861
-11.939
-13.787
-15.411
-16.815
-18.009
-19
-19.798
-20.416
-20.864
-21.157
-21.308
-21.331
-21.239
-21.049
-20.774
-20.431
-20.032
-19.592
-19.124
-18.642
-18.158
-17.683
-17.228
-16.802
-16.413
-16.068
-15.773
-15.534
-15.352
-15.231
-15.17
-15.171
-15.232
-15.349
-15.519
-15.737
-15.996
-16.292
-16.617
-16.963
-17.322
-17.685
-18.045
-18.393
-18.721
-19.022
-19.288
-19.512
-19.69
-19.819
-19.894
-19.914
-19.876
-19.779
-19.625
-19.413
-19.143
-18.815
-18.432
-17.996
-17.516
-16.996
-16.445
-15.87
-15.282
-14.69
-14.109
-13.546
-13.006
-12.496
-12.025
-11.607
-11.26
-10.998
-10.827
-10.753
-10.783
-10.919
-11.157
-11.481
-11.862
-12.273
-12.698
-13.126
-13.554
-13.968
-14.343
-14.655
-14.884
-15.021
-15.07
-15.025
-14.871
-14.622
-14.321
-14.04
-13.871
-13.874
-14.075
-14.498
-15.185
-16.194
-17.591
-19.431
-21.712
-24.434
-27.634
-31.309
-35.394
-39.704
-43.851
-47.403
-50.028
-51.415
-51.256
-49.433
-45.955
-41.056
-35.45
-29.922
-25.071
-21.499
-19.632
-19.428
-20.513
-22.069
-22.434
-19.693
-12.132
1.968
24.086
55.146
95.441
144.393
199.114
255.036
307.939
354.324
393.895
428.123
456.758
477.147
481.096
459.756
407.148
321.033
211.196
93.067
-14.858
-91.545
-129.273
-130.643
-106.573
-76.374
-50.996
-33.606
-22.517
-10.747
3.741
19.194
33.744
44.282
50.022
52.219
51.64
49.684
48.043
47.282
47.56
48.958
51.115
53.845
57.35
61.314
64.985
67.987
70.115
71.338
71.936
72.008
71.452
70.395
69.141
67.935
67.009
66.465
66.248
66.355
66.835
67.699
68.939
70.515
72.36
74.435
76.729
79.233
81.925
84.773
87.727
90.736
93.766
96.798
99.82
102.825
105.809
108.766
111.695
114.607
117.51
120.41
123.309
126.202
129.087
131.968
134.852
137.743
140.643
143.549
146.457
149.363
152.262
155.147
158.01
160.838
163.623
166.355
169.028
171.633
174.162
176.606
178.953
181.197
183.327
185.333
187.205
188.932
190.505
191.916
193.155
194.216
195.091
195.773
196.257
196.539
196.615
196.482
196.137
195.578
194.806
193.822
192.626
191.221
189.611
187.8
185.794
183.598
181.221
178.67
175.955
173.085
170.071
166.924
163.656
160.281
156.81
153.258
149.639
145.967
142.256
138.519
134.771
131.025
127.294
123.589
119.923
116.305
112.746
109.256
105.841
102.511
99.271
96.127
93.083
90.144
87.311
84.588
81.974
79.469
77.073
74.783
72.597
70.511
68.52
66.62
64.805
63.067
61.401
59.798
58.251
56.751
55.29
53.86
52.453
51.061
49.676
48.292
46.903
45.503
44.088
42.652
41.192
39.705
38.189
36.642
35.064
33.453
31.81
30.137
28.436
26.708
24.958
23.188
21.402
19.604
17.801
15.997
14.196
12.405
10.629
8.874
7.148
5.455
3.802
2.193
0.634
-0.87
-2.316
-3.702
-5.029
-6.297
-7.506
-8.658
-9.756
-10.803
-11.803
-12.761
-13.676
-14.552
-15.393
-16.204
-16.993
-17.768
-18.534
-19.301
-20.076
-20.869
-21.689
-22.54
-23.423
-24.34
-25.298
-26.305
-27.378
-28.526
-29.754
-31.068
-32.472
-33.961
-35.526
-37.15
-38.798
-40.444
-42.071
-43.657
-45.197
-46.673
-48.061
-49.347
-50.511
-51.535
-52.413
-53.129
-53.676
-54.085
-54.397
-54.668
-54.971
-55.348
-55.836
-56.501
-57.391
-58.558
-60.058
-61.889
-64.076
-66.697
-69.753
-73.194
-76.858
-80.387
-83.439
-85.77
-87.055
-86.982
-85.443
-82.443
-78.387
-74.108
-70.31
-67.574
-66.479
-67.339
-70.031
-74.04
-78.018
-79.983
-78.233
-70.903
-56.04
-32.485
0.368
41.468
87.258
135.061
183.089
230.256
277.647
321.33
353.219
365.999
351.6
310.687
252.65
186.253
121.572
64.003
12.311
-32.791
-70.458
-99.932
-118.802
-126.884
-126.021
-118.341
-106.503
-93.317
-81.01
-71.006
-64.082
-60.276
-59.033
-59.641
-61.363
-63.2
-64.143
-63.662
-61.58
-58.076
-53.621
-48.646
-43.499
-38.587
-34.305
-30.869
-28.367
-26.762
-25.891
-25.612
-25.813
-26.365
-27.152
-28.077
-29.034
-29.914
-30.639
-31.145
-31.384
-31.335
-30.973
-30.28
-29.254
-27.913
-26.288
-24.413
-22.316
-20.016
-17.538
-14.915
-12.19
-9.411
-6.615
-3.824
-1.053
1.688
4.387
7.039
9.646
12.219
14.769
17.302
19.82
22.321
24.805
27.279
29.747
32.212
34.674
37.13
39.576
42.01
44.428
46.821
49.18
51.495
53.757
55.957
58.088
60.141
62.109
63.983
65.753
67.414
68.955
70.37
71.648
72.78
73.758
74.575
75.223
75.695
75.983
76.082
75.986
75.691
75.193
74.488
73.574
72.449
71.114
69.569
67.816
65.857
63.697
61.339
58.79
56.057
53.145
50.065
46.825
43.434
39.905
36.248
32.475
28.6
24.635
20.593
16.489
12.337
8.15
3.944
-0.269
-4.474
-8.657
-12.805
-16.905
-20.945
-24.914
-28.799
-32.591
-36.281
-39.859
-43.319
-46.652
-49.854
-52.919
-55.843
-58.623
-61.256
-63.741
-66.079
-68.269
-70.313
-72.213
-73.973
-75.596
-77.087
-78.452
-79.696
-80.826
-81.847
-82.767
-83.593
-84.333
-84.992
-85.578
-86.098
-86.559
-86.966
-87.326
-87.645
-87.928
-88.181
-88.407
-88.611
-88.797
-88.968
-89.127
-89.276
-89.419
-89.555
-89.686
-89.813
-89.935
-90.052
-90.164
-90.27
-90.369
-90.459
-90.538
-90.605
-90.657
-90.693
-90.712
-90.712
-90.69
-90.647
-90.584
-90.503
-90.407
-90.297
-90.177
-90.05
-89.922
-89.796
-89.675
-89.559
-89.452
-89.355
-89.274
-89.212
-89.175
-89.169
-89.201
-89.277
-89.405
-89.589
-89.832
-90.135
-90.5
-90.932
-91.435
-92.022
-92.704
-93.483
-94.366
-95.353
-96.435
-97.601
-98.827
-100.08
-101.337
-102.572
-103.761
-104.891
-105.939
-106.888
-107.729
-108.439
-108.998
-109.395
-109.62
-109.68
-109.623
-109.485
-109.321
-109.207
-109.181
-109.306
-109.655
-110.271
-111.222
-112.554
-114.26
-116.385
-118.995
-122.066
-125.525
-129.179
-132.642
-135.603
-137.801
-138.893
-138.661
-137.048
-134.117
-130.309
-126.347
-122.835
-120.373
-119.483
-120.222
-122.274
-124.959
-126.923
-126.547
-122.248
-112.303
-95.221
-70.263
-37.434
2.448
47.479
95.159
142.585
186.275
222.646
248.554
261.52
259.892
243.27
212.435
169.192
116.427
57.737
-2.998
-61.828
-114.81
-158.687
-191.467
-212.362
-221.713
-220.664
-210.818
-194.403
-174.432
-154.048
-135.666
-120.781
-110.036
-103.687
-101.936
-104.429
-110.014
-117.064
-124.055
-130.079
-134.84
-138.138
-139.617
-139.177
-137.102
-134.07
-130.97
-128.317
-126.223
-124.746
-123.977
-123.949
-124.635
-125.805
-127.033
-128.055
-128.768
-129.127
-129.152
-128.837
-128.139
-127.069
-125.692
-124.056
-122.195
-120.126
-117.828
-115.31
-112.599
-109.733
-106.764
-103.728
-100.643
-97.523
-94.379
-91.217
-88.046
-84.87
-81.681
-78.477
-75.255
-72.016
-68.767
-65.512
-62.249
-58.973
-55.678
-52.361
-49.023
-45.669
-42.301
-38.925
-35.547
-32.175
-28.821
-25.496
-22.207
-18.964
-15.775
-12.649
-9.596
-6.626
-3.751
-0.979
1.677
4.208
6.6
8.843
10.927
12.84
14.575
16.12
17.467
18.608
19.535
20.243
20.725
20.978
20.998
20.782
20.329
19.64
18.715
17.558
16.172
14.562
12.735
10.7
8.464
6.039
3.436
0.667
-2.255
-5.315
-8.5
-11.794
-15.18
-18.644
-22.167
-25.733
-29.325
-32.926
-36.519
-40.086
-43.612
-47.082
-50.479
-53.791
-57.004
-60.106
-63.086
-65.933
-68.638
-71.193
-73.592
-75.827
-77.895
-79.793
-81.519
-83.072
-84.453
-85.664
-86.709
-87.59
-88.314
-88.886
-89.312
-89.6
-89.756
-89.79
-89.71
-89.526
-89.247
-88.884
-88.446
-87.943
-87.384
-86.78
-86.138
-85.466
-84.771
-84.061
-83.341
-82.617
-81.895
-81.178
-80.472
-79.779
-79.102
-78.443
-77.802
-77.18
-76.575
-75.987
-75.413
-74.852
-74.299
-73.753
-73.21
-72.667
-72.121
-71.569
-71.007
-70.431
-69.835
-69.218
-68.574
-67.901
-67.195
-66.455
-65.681
-64.873
-64.034
-63.166
-62.272
-61.356
-60.423
-59.475
-58.517
-57.55
-56.578
-55.604
-54.632
-53.669
-52.72
-51.792
-50.892
-50.027
-49.204
-48.428
-47.705
-47.036
-46.423
-45.87
-45.379
-44.961
-44.627
-44.386
-44.242
-44.199
-44.254
-44.402
-44.633
-44.93
-45.267
-45.622
-45.969
-46.289
-46.56
-46.765
-46.891
-46.923
-46.835
-46.61
-46.236
-45.72
-45.082
-44.339
-43.507
-42.602
-41.669
-40.775
-40
-39.417
-39.091
-39.055
-39.349
-40.057
-41.199
-42.712
-44.458
-46.182
-47.653
-48.762
-49.338
-49.115
-48.02
-46.138
-43.783
-41.53
-39.742
-38.53
-38.17
-39.031
-41.11
-43.976
-46.563
-47.458
-45.77
-40.677
-30.957
-15.32
7.348
36.532
69.608
105.131
142.703
182.86
227.825
273.98
313.33
338.644
341.572
321.355
284.879
238.263
188.936
141.008
93.537
47.276
3.745
-34.822
-64.848
-84.748
-94.744
-95.96
-90.562
-80.677
-68.49
-56.294
-45.62
-37.256
-31.441
-27.842
-25.831
-24.763
-23.716
-21.62
-17.87
-12.256
-4.855
3.919
13.611
23.86
34.224
44.24
53.653
62.325
70.215
77.435
84.074
90.201
95.925
101.325
106.448
111.359
116.118
120.798
125.503
130.304
135.238
140.342
145.634
151.125
156.818
162.687
168.691
174.795
180.969
187.191
193.445
199.7
205.917
212.052
218.057
223.899
229.559
235.016
240.256
245.275
250.069
254.648
259.029
263.22
267.226
271.052
274.698
278.169
281.472
284.61
287.587
290.407
293.069
295.575
297.924
300.113
302.138
303.994
305.675
307.175
308.489
309.613
310.543
311.275
311.805
312.131
312.248
312.154
311.844
311.315
310.564
309.588
308.384
306.95
305.285
303.388
301.259
298.9
296.313
293.5
290.465
287.214
283.754
280.09
276.232
272.188
267.969
263.586
259.049
254.371
249.565
244.644
239.621
234.512
229.329
224.088
218.803
213.488
208.158
202.827
197.508
192.216
186.964
181.764
176.629
171.572
166.602
161.732
156.969
152.322
147.799
143.405
139.146
135.025
131.046
127.209
123.515
119.963
116.553
113.28
110.143
107.137
104.258
101.498
98.853
96.316
93.88
91.537
89.28
87.102
84.994
82.951
80.964
79.027
77.132
75.272
73.441
71.631
69.838
68.056
66.278
64.501
62.721
60.935
59.141
57.339
55.526
53.705
51.874
50.036
48.193
46.346
44.499
42.655
40.818
38.992
37.182
35.393
33.63
31.898
30.202
28.546
26.934
25.371
23.858
22.4
21
19.659
18.382
17.169
16.022
14.944
13.934
12.994
12.121
11.313
10.565
9.872
9.23
8.632
8.072
7.543
7.038
6.553
6.083
5.625
5.172
4.715
4.247
3.758
3.242
2.69
2.091
1.44
0.73
-0.042
-0.875
-1.772
-2.736
-3.774
-4.901
-6.127
-7.457
-8.896
-10.441
-12.087
-13.824
-15.631
-17.476
-19.337
-21.185
-23
-24.77
-26.475
-28.103
-29.641
-31.06
-32.337
-33.458
-34.419
-35.236
-35.943
-36.567
-37.151
-37.752
-38.426
-39.256
-40.317
-41.666
-43.362
-45.415
-47.861
-50.8
-54.254
-58.166
-62.373
-66.545
-70.374
-73.699
-76.272
-77.777
-78.107
-77.265
-75.612
-73.964
-72.956
-72.997
-74.532
-77.815
-82.674
-88.63
-94.432
-98.127
-98.111
-92.864
-80.708
-60.419
-31.383
5.458
47.105
90.181
132.284
173.552
215.291
256.039
291.36
312.739
310.782
281.454
225.218
148.095
60.976
-24.905
-97.834
-148.997
-176.16
-183.195
-179.362
-173.415
-169.578
-167.75
-164.299
-157.275
-147.918
-138.491
-131.727
-128.773
-128.935
-131.232
-134.706
-138.389
-141.468
-143.487
-144.216
-143.749
-142.492
-140.796
-138.933
-137.255
-136.106
-135.662
-135.998
-137.055
-138.645
-140.633
-142.889
-145.257
-147.603
-149.798
-151.753
-153.424
-154.774
-155.776
-156.407
-156.653
-156.508
-155.986
-155.098
-153.859
-152.3
-150.448
-148.34
-146.019
-143.525
-140.91
-138.214
-135.466
-132.691
-129.909
-127.133
-124.377
-121.65
-118.951
-116.285
-113.658
-111.074
-108.541
-106.065
-103.649
-101.296
-99.007
-96.786
-94.639
-92.573
-90.594
-88.712
-86.934
-85.269
-83.73
-82.324
-81.06
-79.942
-78.976
-78.165
-77.513
-77.024
-76.698
-76.538
-76.544
-76.719
-77.064
-77.577
-78.26
-79.11
-80.125
-81.301
-82.636
-84.125
-85.764
-87.546
-89.466
-91.517
-93.692
-95.985
-98.388
-100.892
-103.488
-106.167
-108.921
-111.74
-114.613
-117.532
-120.485
-123.465
-126.459
-129.46
-132.458
-135.443
-138.405
-141.336
-144.226
-147.067
-149.85
-152.566
-155.208
-157.769
-160.24
-162.615
-164.888
-167.054
-169.107
-171.044
-172.858
-174.549
-176.111
-177.544
-178.845
-180.014
-181.049
-181.95
-182.719
-183.355
-183.861
-184.238
-184.489
-184.615
-184.622
-184.511
-184.287
-183.954
-183.517
-182.981
-182.351
-181.631
-180.828
-179.946
-178.991
-177.968
-176.883
-175.741
-174.547
-173.307
-172.025
-170.705
-169.353
-167.971
-166.564
-165.134
-163.684
-162.216
-160.731
-159.23
-157.713
-156.181
-154.633
-153.068
-151.484
-149.88
-148.252
-146.597
-144.912
-143.192
-141.432
-139.628
-137.772
-135.862
-133.89
-131.851
-129.739
-127.547
-125.27
-122.903
-120.441
-117.877
-115.208
-112.428
-109.535
-106.526
-103.399
-100.153
-96.787
-93.302
-89.703
-85.994
-82.178
-78.262
-74.252
-70.155
-65.98
-61.736
-57.428
-53.066
-48.659
-44.219
-39.761
-35.297
-30.841
-26.405
-22.004
-17.651
-13.361
-9.144
-5.008
-0.963
2.98
6.801
10.479
13.996
17.343
20.513
23.499
26.302
28.919
31.364
33.659
35.82
37.861
39.788
41.601
43.31
44.941
46.521
48.084
49.649
51.227
52.832
54.467
56.118
57.76
59.349
60.836
62.186
63.364
64.332
65.055
65.482
65.568
65.253
64.441
63.105
61.299
59.161
56.954
54.973
53.436
52.601
52.793
54.144
56.533
59.588
62.585
64.807
65.842
65.366
63.017
58.773
53.151
47.227
42.699
41.402
44.798
54.079
70.517
95.204
128.254
168.768
215.177
264.257
312.781
358.929
399.31
432.51
458.174
472.348
474.029
460.26
426.795
376.513
310.594
235.441
163.238
100.363
55.302
30.514
18.789
15.631
15.028
13.685
15.012
20.04
28.21
38.159
46.474
51.465
53.351
52.728
50.527
47.496
44.295
41.682
40.153
39.86
40.595
41.959
43.647
45.396
46.903
47.869
48.104
47.558
46.326
44.572
42.438
40.057
37.568
35.118
32.845
30.845
29.178
27.876
26.959
26.446
26.347
26.661
27.373
28.466
29.911
31.681
33.747
36.071
38.608
41.312
44.125
47.001
49.91
52.821
55.716
58.579
61.395
64.157
66.863
69.511
72.097
74.615
77.056
79.415
81.688
83.874
85.97
87.975
89.883
91.687
93.383
94.961
96.416
97.738
98.915
99.94
100.805
101.506
102.04
102.401
102.588
102.598
102.431
102.085
101.561
100.858
99.977
98.917
97.683
96.275
94.699
92.958
91.057
89.001
86.796
84.449
81.966
79.355
76.624
73.779
70.832
67.79
64.664
61.464
58.201
54.886
51.53
48.145
44.741
41.33
37.922
34.529
31.16
27.826
24.536
21.299
18.124
15.02
11.994
9.052
6.201
3.447
0.794
-1.753
-4.19
-6.516
-8.727
-10.822
-12.799
-14.658
-16.399
-18.022
-19.53
-20.924
-22.207
-23.383
-24.455
-25.429
-26.308
-27.098
-27.805
-28.434
-28.993
-29.487
-29.923
-30.307
-30.647
-30.948
-31.217
-31.461
-31.684
-31.892
-32.09
-32.283
-32.475
-32.671
-32.874
-33.088
-33.317
-33.563
-33.83
-34.12
-34.436
-34.778
-35.148
-35.547
-35.975
-36.431
-36.916
-37.428
-37.965
-38.526
-39.109
-39.711
-40.329
-40.959
-41.596
-42.238
-42.879
-43.514
-44.139
-44.748
-45.338
-45.903
-46.439
-46.941
-47.404
-47.824
-48.197
-48.518
-48.782
-48.987
-49.126
-49.198
-49.2
-49.128
-48.982
-48.759
-48.46
-48.085
-47.637
-47.117
-46.53
-45.878
-45.164
-44.394
-43.572
-42.703
-41.79
-40.839
-39.857
-38.851
-37.831
-36.806
-35.785
-34.778
-33.794
-32.844
-31.936
-31.071
-30.255
-29.495
-28.804
-28.199
-27.693
-27.294
-27.008
-26.837
-26.781
-26.832
-26.972
-27.168
-27.391
-27.619
-27.84
-28.051
-28.242
-28.392
-28.473
-28.454
-28.319
-28.065
-27.686
-27.17
-26.527
-25.797
-25.055
-24.406
-23.93
-23.662
-23.638
-23.894
-24.481
-25.475
-26.944
-28.914
-31.41
-34.475
-38.077
-42.143
-46.483
-50.712
-54.441
-57.325
-58.998
-59.214
-57.994
-55.491
-52.103
-48.531
-45.283
-42.784
-41.571
-41.763
-42.904
-44.17
-44.221
-41.424
-34.543
-22.347
-3.379
23.154
57.221
98.018
143.775
192.24
241.152
287.731
328.635
360.799
381.662
389.466
383.423
363.487
330.478
286.249
233.605
176.178
117.768
61.856
12
-29.878
-63.019
-85.848
-98.584
-100.558
-91.218
-75.597
-58.125
-44.036
-38.724
-39.477
-43.489
-48.304
-49.949
-50.075
-50.068
-49.454
-49.187
-48.283
-45.851
-42.523
-38.54
-34.305
-30.428
-27.15
-24.565
-22.776
-21.728
-21.245
-21.191
-21.466
-21.958
-22.568
-23.216
-23.781
-24.141
-24.232
-24.005
-23.424
-22.48
-21.155
-19.434
-17.334
-14.891
-12.142
-9.125
-5.871
-2.402
1.249
5.038
8.916
12.826
16.727
20.592
24.399
28.132
31.777
35.323
38.771
42.131
45.41
48.61
51.729
54.764
57.715
60.586
63.381
66.104
68.756
71.336
73.844
76.28
78.642
80.927
83.128
85.24
87.257
89.176
90.993
92.707
94.315
95.812
97.197
98.468
99.623
100.657
101.567
102.349
103.001
103.52
103.902
104.144
104.244
104.199
104.008
103.668
103.178
102.538
101.745
100.801
99.706
98.461
97.067
95.528
93.846
92.026
90.071
87.987
85.779
83.453
81.017
78.476
75.839
73.114
70.309
67.432
64.492
61.499
58.462
55.391
52.296
49.186
46.071
42.961
39.865
36.793
33.754
30.756
27.808
24.919
22.095
19.344
16.672
14.085
11.587
9.183
6.877
4.67
2.565
0.564
-1.334
-3.129
-4.822
-6.414
-7.907
-9.306
-10.612
-11.83
-12.964
-14.02
-15.003
-15.918
-16.77
-17.567
-18.313
-19.015
-19.681
-20.315
-20.926
-21.518
-22.098
-22.674
-23.249
-23.831
-24.424
-25.033
-25.662
-26.315
-26.994
-27.703
-28.442
-29.212
-30.015
-30.85
-31.717
-32.613
-33.538
-34.488
-35.46
-36.452
-37.459
-38.476
-39.498
-40.521
-41.538
-42.546
-43.536
-44.504
-45.442
-46.345
-47.206
-48.02
-48.78
-49.48
-50.114
-50.678
-51.166
-51.575
-51.902
-52.143
-52.297
-52.365
-52.347
-52.246
-52.064
-51.803
-51.468
-51.063
-50.593
-50.062
-49.472
-48.829
-48.139
-47.409
-46.649
-45.867
-45.071
-44.27
-43.476
-42.7
-41.949
-41.227
-40.541
-39.898
-39.309
-38.794
-38.363
-38.024
-37.781
-37.64
-37.6
-37.655
-37.79
-37.975
-38.185
-38.402
-38.615
-38.82
-39.005
-39.151
-39.229
-39.217
-39.107
-38.9
-38.591
-38.173
-37.66
-37.096
-36.559
-36.137
-35.895
-35.861
-36.057
-36.531
-37.341
-38.549
-40.221
-42.364
-44.986
-48.152
-51.848
-55.989
-60.389
-64.658
-68.398
-71.355
-73.232
-73.726
-72.82
-70.594
-67.369
-63.936
-60.886
-58.558
-57.443
-57.842
-59.499
-61.922
-64.088
-64.227
-60.934
-53.022
-39.014
-17.764
11.171
47.707
90.79
138.112
187.264
235.715
280.106
316.765
342.311
353.677
349.818
332.453
303.238
263.06
210.428
142.73
61.991
-23.757
-100.062
-152.378
-174.701
-170.603
-152.218
-132.623
-118.611
-110.898
-105.865
-100.271
-93.838
-88.115
-85.276
-85.817
-88.672
-92.356
-95.153
-96.261
-95.655
-93.406
-89.885
-85.584
-80.906
-76.351
-72.433
-69.38
-67.253
-66.034
-65.564
-65.691
-66.304
-67.251
-68.38
-69.58
-70.741
-71.752
-72.536
-73.029
-73.176
-72.949
-72.33
-71.305
-69.88
-68.079
-65.936
-63.483
-60.751
-57.761
-54.54
-51.126
-47.563
-43.902
-40.182
-36.43
-32.664
-28.9
-25.149
-21.42
-17.71
-14.009
-10.309
-6.604
-2.895
0.814
4.523
8.235
11.951
15.674
19.402
23.13
26.854
30.57
34.271
37.95
41.596
45.197
48.742
52.222
55.628
58.952
62.183
65.313
68.331
71.229
73.998
76.629
79.11
81.432
83.587
85.565
87.359
88.96
90.361
91.556
92.539
93.304
93.849
94.17
94.263
94.129
93.766
93.177
92.363
91.327
90.073
88.606
86.932
85.057
82.991
80.74
78.316
75.728
72.989
70.11
67.105
63.986
60.767
57.462
54.087
50.657
47.186
43.69
40.185
36.686
33.207
29.766
26.375
23.049
19.8
16.643
13.588
10.647
7.829
5.145
2.601
0.206
-2.034
-4.113
-6.028
-7.776
-9.354
-10.761
-11.999
-13.067
-13.97
-14.709
-15.29
-15.716
-15.995
-16.132
-16.135
-16.011
-15.769
-15.419
-14.969
-14.431
-13.815
-13.13
-12.389
-11.601
-10.776
-9.924
-9.056
-8.181
-7.307
-6.444
-5.6
-4.782
-3.996
-3.25
-2.549
-1.896
-1.294
-0.746
-0.252
0.186
0.57
0.9
1.178
1.408
1.593
1.736
1.842
1.917
1.967
2.001
2.024
2.045
2.072
2.113
2.178
2.274
2.408
2.589
2.823
3.119
3.483
3.923
4.442
5.048
5.744
6.535
7.423
8.407
9.485
10.655
11.912
13.253
14.673
16.164
17.719
19.333
21.003
22.721
24.481
26.271
28.081
29.9
31.72
33.528
35.313
37.061
38.761
40.405
41.989
43.506
44.943
46.285
47.513
48.613
49.578
50.403
51.08
51.608
51.989
52.238
52.385
52.452
52.458
52.417
52.339
52.248
52.175
52.146
52.185
52.31
52.526
52.838
53.251
53.744
54.284
54.838
55.338
55.726
55.948
55.926
55.598
54.916
53.795
52.154
49.966
47.244
44.104
40.772
37.456
34.344
31.678
29.719
28.666
28.598
29.299
30.269
31.026
31.214
30.533
28.705
25.536
21.041
15.857
11.299
8.772
9.552
14.93
26.207
44.75
72.005
107.436
148.37
192.588
237.573
283.535
333.857
387.167
438.954
480.899
499.789
489.316
449.198
382.621
299.382
208.309
118.154
40.731
-15.611
-46.84
-55.161
-50.642
-42.83
-36.993
-33.912
-29.626
-21.94
-12.063
-2.234
4.533
7.021
6.082
2.873
-1.381
-5.533
-8.732
-10.497
-10.652
-9.38
-7.159
-4.437
-1.571
1.042
3.038
4.235
4.563
4.084
2.988
1.422
-0.494
-2.612
-4.813
-6.996
-9.044
-10.889
-12.482
-13.774
-14.74
-15.369
-15.642
-15.56
-15.14
-14.399
-13.372
-12.092
-10.583
-8.876
-7.006
-5.01
-2.939
-0.832
1.287
3.398
5.488
7.55
9.574
11.56
13.516
15.448
17.364
19.265
21.15
23.019
24.877
26.726
28.572
30.416
32.255
34.087
35.906
37.71
39.491
41.241
42.948
44.603
46.198
47.724
49.175
50.539
51.81
52.976
54.029
54.961
55.76
56.416
56.919
57.257
57.421
57.402
57.19
56.778
56.155
55.317
54.256
52.967
51.445
49.688
47.691
45.455
42.979
40.265
37.316
34.134
30.726
27.097
23.255
19.208
14.967
10.543
5.945
1.189
-3.713
-8.746
-13.894
-19.143
-24.474
-29.872
-35.318
-40.795
-46.285
-51.77
-57.232
-62.655
-68.021
-73.314
-78.518
-83.62
-88.604
-93.458
-98.169
-102.727
-107.122
-111.346
-115.391
-119.252
-122.923
-126.401
-129.684
-132.772
-135.664
-138.362
-140.869
-143.188
-145.326
-147.287
-149.079
-150.708
-152.184
-153.516
-154.712
-155.784
-156.741
-157.593
-158.352
-159.029
-159.633
-160.175
-160.666
-161.115
-161.532
-161.925
-162.303
-162.674
-163.045
-163.422
-163.812
-164.218
-164.646
-165.098
-165.576
-166.081
-166.614
-167.173
-167.759
-168.368
-168.999
-169.646
-170.306
-170.974
-171.646
-172.315
-172.974
-173.618
-174.238
-174.83
-175.385
-175.897
-176.359
-176.765
-177.109
-177.384
-177.587
-177.712
-177.753
-177.707
-177.57
-177.34
-177.014
-176.591
-176.072
-175.456
-174.749
-173.954
-173.078
-172.124
-171.099
-170.011
-168.868
-167.676
-166.442
-165.171
-163.871
-162.553
-161.229
-159.907
-158.596
-157.306
-156.046
-154.826
-153.656
-152.54
-151.48
-150.48
-149.548
-148.7
-147.952
-147.317
-146.8
-146.404
-146.13
-145.981
-145.953
-146.031
-146.189
-146.402
-146.651
-146.925
-147.218
-147.51
-147.768
-147.954
-148.032
-147.978
-147.783
-147.438
-146.933
-146.275
-145.486
-144.599
-143.681
-142.792
-141.984
-141.321
-140.859
-140.651
-140.795
-141.415
-142.571
-144.253
-146.347
-148.62
-150.849
-152.85
-154.377
-155.122
-154.888
-153.656
-151.724
-149.732
-148.314
-147.926
-148.925
-151.611
-156.06
-162.026
-168.659
-174.419
-177.546
-176.412
-169.579
-155.683
-133.642
-102.806
-63.315
-16.405
35.895
91.196
146.887
199.639
245.809
282.026
305.189
314.007
309.281
290.647
257.527
209.661
145.112
67.908
-12.523
-87.191
-144.843
-181.461
-202.249
-212.116
-217.515
-221.276
-219.795
-211.486
-196.691
-177.359
-158.056
-141.616
-128.711
-119.46
-113.575
-111.074
-111.729
-114.632
-118.49
-122.077
-124.866
-126.807
-127.74
-127.326
-125.451
-122.315
-118.493
-114.784
-111.574
-108.902
-106.8
-105.322
-104.496
-104.304
-104.521
-104.728
-104.655
-104.194
-103.298
-101.992
-100.276
-98.108
-95.5
-92.525
-89.244
-85.707
-81.941
-77.935
-73.7
-69.269
-64.685
-60.003
-55.263
-50.481
-45.672
-40.843
-35.999
-31.149
-26.294
-21.426
-16.538
-11.624
-6.685
-1.726
3.249
8.245
13.266
18.32
23.408
28.528
33.676
38.849
44.042
49.248
54.46
59.665
64.855
70.02
75.154
80.249
85.294
90.28
95.196
100.033
104.779
109.423
113.953
118.357
122.623
126.74
130.698
134.487
138.095
141.513
144.732
147.744
150.541
153.116
155.463
157.576
159.452
161.089
162.483
163.635
164.545
165.215
165.646
165.844
165.813
165.56
165.092
164.417
163.546
162.488
161.256
159.862
158.319
156.642
154.844
152.941
150.948
148.881
146.755
144.585
142.389
140.179
137.972
135.782
133.623
131.508
129.449
127.458
125.546
123.723
121.997
120.376
118.866
117.474
116.202
115.055
114.035
113.141
112.375
111.733
111.214
110.814
110.527
110.348
110.27
110.286
110.387
110.565
110.81
111.113
111.463
111.852
112.267
112.7
113.14
113.577
114.002
114.405
114.777
115.11
115.397
115.63
115.803
115.91
115.947
115.91
115.797
115.606
115.335
114.984
114.554
114.046
113.463
112.808
112.086
111.3
110.457
109.563
108.626
107.653
106.65
105.627
104.591
103.552
102.517
101.494
100.491
99.515
98.573
97.672
96.819
96.019
95.275
94.593
93.976
93.427
92.944
92.527
92.173
91.879
91.642
91.457
91.318
91.219
91.153
91.119
91.109
91.117
91.134
91.148
91.151
91.133
91.085
90.995
90.852
90.644
90.365
90.013
89.581
89.061
88.44
87.701
86.834
85.834
84.696
83.418
81.999
80.443
78.767
76.997
75.155
73.254
71.309
69.327
67.329
65.343
63.392
61.502
59.689
57.965
56.34
54.816
53.376
51.983
50.599
49.175
47.669
46.044
44.24
42.199
39.863
37.174
34.079
30.496
26.391
21.813
16.893
11.879
7.052
2.625
-1.182
-4.039
-5.757
-6.388
-6.184
-5.744
-5.699
-6.358
-7.987
-11.033
-15.705
-21.746
-28.442
-34.345
-37.696
-37.288
-32.07
-20.495
-1.155
26.819
63.817
107.822
154.666
201.149
244.211
283.663
322.86
362.127
399.433
425.989
426.832
391.359
313.669
201.692
76.015
-42.143
-130.951
-182.288
-202.073
-199.402
-189.495
-179.278
-167.049
-153.921
-137.043
-118.428
-104.879
-95.573
-90.663
-89.299
-87.407
-86.64
-88.032
-90.261
-93.585
-96.599
-97.97
-98.06
-96.907
-94.449
-91.174
-87.76
-84.713
-82.432
-81.067
-80.42
-80.365
-81.011
-82.262
-83.833
-85.494
-86.965
-88.081
-88.871
-89.327
-89.392
-89.061
-88.332
-87.217
-85.775
-84.045
-82.036
-79.766
-77.246
-74.503
-71.581
-68.528
-65.396
-62.223
-59.029
-55.832
-52.643
-49.469
-46.319
-43.194
-40.083
-36.978
-33.877
-30.778
-27.688
-24.608
-21.53
-18.45
-15.363
-12.267
-9.168
-6.069
-2.974
0.112
3.181
6.222
9.223
12.174
15.064
17.885
20.629
23.285
25.844
28.296
30.632
32.843
34.919
36.85
38.627
40.241
41.683
42.947
44.025
44.911
45.599
46.084
46.364
46.434
46.293
45.939
45.373
44.596
43.61
42.419
41.028
39.443
37.671
35.721
33.601
31.324
28.899
26.339
23.657
20.866
17.982
15.017
11.988
8.908
5.794
2.66
-0.478
-3.605
-6.707
-9.769
-12.778
-15.72
-18.582
-21.353
-24.021
-26.576
-29.009
-31.313
-33.478
-35.501
-37.377
-39.102
-40.674
-42.092
-43.356
-44.469
-45.432
-46.249
-46.926
-47.467
-47.881
-48.174
-48.355
-48.432
-48.415
-48.314
-48.137
-47.896
-47.599
-47.258
-46.881
-46.478
-46.06
-45.635
-45.213
-44.802
-44.41
-44.043
-43.71
-43.415
-43.163
-42.959
-42.803
-42.7
-42.649
-42.652
-42.707
-42.814
-42.969
-43.169
-43.41
-43.687
-43.995
-44.326
-44.673
-45.03
-45.387
-45.738
-46.075
-46.388
-46.67
-46.912
-47.107
-47.247
-47.325
-47.333
-47.263
-47.11
-46.868
-46.533
-46.101
-45.569
-44.934
-44.199
-43.364
-42.432
-41.406
-40.289
-39.085
-37.801
-36.443
-35.016
-33.525
-31.978
-30.382
-28.749
-27.09
-25.415
-23.736
-22.064
-20.413
-18.795
-17.222
-15.699
-14.233
-12.833
-11.511
-10.287
-9.174
-8.178
-7.306
-6.563
-5.951
-5.467
-5.098
-4.813
-4.588
-4.404
-4.247
-4.116
-3.999
-3.876
-3.725
-3.52
-3.251
-2.921
-2.526
-2.052
-1.51
-0.937
-0.4
-0.002
0.186
0.127
-0.218
-0.891
-1.961
-3.489
-5.51
-8.026
-11.044
-14.613
-18.767
-23.464
-28.508
-33.58
-38.355
-42.541
-45.828
-47.816
-48.198
-46.921
-44.276
-40.87
-37.171
-33.671
-31.159
-30.336
-31.75
-34.619
-36.432
-35.841
-32.491
-27.114
-22.314
-15.424
-0.705
25.512
68.613
126.535
192.754
265.7
338.544
405.122
458.985
486.047
480.277
442.074
376.291
295.085
204.97
109.73
15.256
-71.461
-139.58
-181.218
-196.844
-194.346
-183.897
-172.022
-159.954
-144.57
-124.122
-100.207
-75.93
-55.288
-40.502
-31.808
-28.771
-30.354
-35.225
-42.025
-49.445
-56.277
-61.725
-65.274
-66.633
-65.845
-63.295
-59.599
-55.447
-51.552
-48.349
-46.08
-44.893
-44.731
-45.446
-46.817
-48.504
-50.147
-51.535
-52.554
-53.157
-53.379
-53.227
-52.702
-51.854
-50.742
-49.408
-47.879
-46.155
-44.233
-42.133
-39.895
-37.569
-35.197
-32.8
-30.386
-27.959
-25.522
-23.078
-20.626
-18.151
-15.644
-13.099
-10.513
-7.89
-5.229
-2.524
0.235
3.058
5.951
8.915
11.95
15.055
18.225
21.457
24.74
28.063
31.417
34.792
38.18
41.573
44.959
48.329
51.67
54.97
58.218
61.4
64.502
67.511
70.412
73.192
75.839
78.341
80.685
82.86
84.855
86.661
88.267
89.667
90.852
91.816
92.555
93.065
93.343
93.388
93.202
92.786
92.143
91.278
90.198
88.909
87.422
85.745
83.89
81.869
79.696
77.385
74.951
72.409
69.776
67.069
64.306
61.503
58.678
55.849
53.032
50.245
47.504
44.824
42.221
39.708
37.298
35.005
32.838
30.809
28.925
27.194
25.622
24.215
22.975
21.905
21.006
20.276
19.714
19.317
19.081
19.001
19.07
19.281
19.627
20.099
20.687
21.382
22.173
23.05
24.001
25.017
26.085
27.197
28.341
29.507
30.686
31.869
33.05
34.22
35.372
36.502
37.604
38.674
39.71
40.709
41.67
42.593
43.478
44.328
45.145
45.931
46.69
47.427
48.147
48.854
49.556
50.257
50.963
51.681
52.417
53.178
53.969
54.797
55.666
56.582
57.548
58.568
59.644
60.776
61.961
63.201
64.492
65.831
67.215
68.636
70.093
71.58
73.094
74.629
76.176
77.727
79.274
80.806
82.315
83.79
85.22
86.595
87.91
89.159
90.339
91.44
92.454
93.363
94.158
94.832
95.379
95.794
96.082
96.248
96.308
96.291
96.217
96.102
95.961
95.802
95.64
95.492
95.373
95.305
95.305
95.387
95.562
95.831
96.165
96.525
96.859
97.101
97.206
97.133
96.826
96.241
95.327
94.038
92.358
90.26
87.669
84.559
80.981
77.084
73.194
69.661
66.744
64.745
64
64.703
66.881
70.279
74.171
77.774
80.512
81.807
81.172
78.469
73.9
68.241
63.211
60.722
62.395
70.08
85.534
110.017
144.459
187.491
234.995
283.338
329.141
372.32
416.623
460.809
500.562
526.593
523.22
483.969
408.745
302.81
183.749
65.728
-38.811
-115.602
-162.372
-180.588
-175.436
-160.063
-141.415
-122.515
-104.619
-84.061
-60.917
-38.218
-18.461
-5.168
0.317
-0.907
-7.497
-17.546
-28.837
-39.748
-49.133
-56.02
-59.998
-61.132
-59.713
-56.407
-52.241
-48.189
-44.881
-42.732
-41.887
-42.285
-43.821
-46.275
-49.268
-52.355
-55.239
-57.761
-59.866
-61.596
-62.962
-63.955
-64.601
-64.959
-65.075
-64.98
-64.683
-64.168
-63.445
-62.547
-61.521
-60.423
-59.293
-58.144
-56.987
-55.828
-54.669
-53.514
-52.363
-51.2
-50.015
-48.803
-47.56
-46.288
-44.984
-43.638
-42.236
-40.769
-39.228
-37.614
-35.926
-34.166
-32.338
-30.447
-28.501
-26.514
-24.493
-22.45
-20.392
-18.328
-16.271
-14.231
-12.221
-10.254
-8.344
-6.504
-4.75
-3.097
-1.562
-0.159
1.096
2.19
3.108
3.834
4.356
4.662
4.739
4.576
4.164
3.493
2.556
1.348
-0.135
-1.898
-3.94
-6.261
-8.86
-11.733
-14.874
-18.277
-21.934
-25.836
-29.971
-34.328
-38.894
-43.653
-48.592
-53.693
-58.939
-64.312
-69.793
-75.364
-81.003
-86.693
-92.411
-98.14
-103.859
-109.548
-115.19
-120.766
-126.258
-131.651
-136.929
-142.078
-147.085
-151.939
-156.627
-161.142
-165.475
-169.62
-173.573
-177.328
-180.884
-184.239
-187.395
-190.351
-193.111
-195.678
-198.056
-200.25
-202.266
-204.11
-205.791
-207.316
-208.693
-209.931
-211.041
-212.03
-212.908
-213.685
-214.37
-214.97
-215.493
-215.948
-216.341
-216.678
-216.965
-217.207
-217.409
-217.575
-217.708
-217.81
-217.883
-217.927
-217.942
-217.928
-217.882
-217.803
-217.688
-217.534
-217.338
-217.098
-216.811
-216.472
-216.079
-215.626
-215.112
-214.531
-213.88
-213.156
-212.354
-211.474
-210.514
-209.475
-208.359
-207.17
-205.908
-204.579
-203.185
-201.732
-200.223
-198.66
-197.045
-195.382
-193.676
-191.935
-190.165
-188.374
-186.571
-184.763
-182.96
-181.169
-179.396
-177.646
-175.92
-174.223
-172.563
-170.95
-169.4
-167.925
-166.532
-165.223
-163.998
-162.855
-161.783
-160.767
-159.783
-158.804
-157.808
-156.775
-155.69
-154.539
-153.312
-151.989
-150.543
-148.955
-147.216
-145.333
-143.329
-141.222
-139.022
-136.75
-134.457
-132.218
-130.116
-128.226
-126.614
-125.305
-124.331
-123.788
-123.694
-123.985
-124.525
-125.015
-125.176
-124.901
-124.035
-122.348
-119.835
-116.562
-112.785
-109.199
-106.306
-104.276
-103.383
-103.752
-105.061
-106.885
-108.339
-107.82
-104.042
-96.047
-82.818
-63.583
-37.927
-5.675
32.628
74.521
116.682
156.483
191.903
223.52
253.399
280.615
301.773
310.476
298.918
263.893
206
130.468
47.449
-32.198
-96.326
-135.778
-148.869
-140.406
-121.135
-101.477
-86.679
-76.864
-68.381
-58.709
-47.971
-37.753
-30.378
-26.508
-25.15
-25.121
-25.034
-23.867
-21.366
-17.488
-12.353
-6.361
0.09
6.668
12.989
18.715
23.705
27.917
31.395
34.292
36.73
38.8
40.621
42.297
43.918
45.593
47.393
49.351
51.499
53.856
56.427
59.227
62.251
65.478
68.88
72.43
76.106
79.893
83.774
87.721
91.703
95.679
99.619
103.507
107.333
111.09
114.775
118.385
121.926
125.414
128.863
132.283
135.68
139.057
142.419
145.774
149.13
152.494
155.869
159.256
162.656
166.067
169.489
172.915
176.339
179.75
183.14
186.499
189.819
193.091
196.304
199.447
202.508
205.478
208.343
211.091
213.708
216.181
218.496
220.641
222.604
224.373
225.937
227.284
228.406
229.295
229.942
230.342
230.488
230.377
230.006
229.374
228.481
227.328
225.918
224.255
222.345
220.195
217.814
215.211
212.396
209.381
206.178
202.803
199.268
195.589
191.782
187.864
183.853
179.764
175.617
171.429
167.217
162.998
158.79
154.607
150.466
146.38
142.365
138.432
134.593
130.86
127.243
123.748
120.385
117.16
114.076
111.138
108.349
105.71
103.221
100.881
98.69
96.645
94.742
92.977
91.346
89.843
88.461
87.193
86.031
84.969
83.997
83.108
82.293
81.545
80.855
80.216
79.621
79.064
78.537
78.035
77.551
77.082
76.623
76.169
75.718
75.265
74.811
74.352
73.89
73.421
72.948
72.468
71.985
71.498
71.008
70.516
70.024
69.532
69.043
68.559
68.081
67.611
67.149
66.696
66.253
65.819
65.393
64.97
64.549
64.125
63.697
63.259
62.807
62.336
61.844
61.327
60.781
60.2
59.577
58.906
58.181
57.394
56.539
55.604
54.581
53.463
52.25
50.938
49.521
47.99
46.333
44.545
42.626
40.579
38.401
36.098
33.677
31.158
28.58
25.976
23.376
20.797
18.254
15.77
13.377
11.11
8.993
7.031
5.219
3.558
2.059
0.712
-0.516
-1.696
-2.926
-4.285
-5.826
-7.595
-9.63
-11.989
-14.74
-17.94
-21.611
-25.75
-30.321
-35.308
-40.735
-46.524
-52.484
-58.3
-63.538
-67.816
-70.879
-72.507
-72.453
-70.631
-67.153
-62.378
-57.038
-51.883
-47.414
-43.823
-41.048
-38.75
-36.258
-32.529
-25.97
-14.771
2.561
26.724
57.614
94.533
136.095
180.151
223.526
262.407
293.087
312.462
319.36
313.225
292.768
258.777
211.436
151.757
86.588
21.419
-37.573
-83.246
-116.5
-138.954
-152.469
-161.347
-165.066
-163.058
-156.727
-147.033
-136.983
-129.016
-123.594
-120.825
-120.154
-120.944
-122.879
-125.218
-127.045
-127.892
-127.638
-126.493
-124.861
-123.019
-121.169
-119.616
-118.709
-118.648
-119.485
-121.112
-123.33
-125.979
-128.914
-132.002
-135.095
-138.043
-140.736
-143.102
-145.105
-146.73
-147.967
-148.8
-149.224
-149.25
-148.899
-148.208
-147.217
-145.954
-144.461
-142.777
-140.946
-139.025
-137.054
-135.06
-133.063
-131.074
-129.098
-127.144
-125.214
-123.3
-121.397
-119.499
-117.602
-115.707
-113.814
-111.916
-110.01
-108.088
-106.146
-104.187
-102.21
-100.217
-98.211
-96.195
-94.176
-92.161
-90.158
-88.172
-86.209
-84.273
-82.369
-80.505
-78.687
-76.919
-75.21
-73.566
-71.995
-70.507
-69.11
-67.812
-66.621
-65.545
-64.592
-63.768
-63.081
-62.536
-62.139
-61.895
-61.808
-61.884
-62.125
-62.534
-63.112
-63.861
-64.781
-65.871
-67.128
-68.55
-70.133
-71.871
-73.759
-75.789
-77.955
-80.246
-82.654
-85.169
-87.778
-90.469
-93.229
-96.045
-98.902
-101.786
-104.681
-107.572
-110.446
-113.286
-116.08
-118.811
-121.467
-124.035
-126.501
-128.852
-131.078
-133.167
-135.107
-136.891
-138.508
-139.952
-141.216
-142.294
-143.181
-143.874
-144.37
-144.668
-144.767
-144.669
-144.374
-143.885
-143.207
-142.343
-141.301
-140.085
-138.704
-137.165
-135.476
-133.646
-131.683
-129.596
-127.393
-125.082
-122.674
-120.177
-117.599
-114.95
-112.236
-109.468
-106.653
-103.798
-100.912
-98.001
-95.072
-92.131
-89.185
-86.239
-83.298
-80.367
-77.45
-74.552
-71.676
-68.825
-66.003
-63.211
-60.451
-57.726
-55.037
-52.386
-49.775
-47.206
-44.684
-42.213
-39.798
-37.444
-35.154
-32.935
-30.79
-28.725
-26.742
-24.844
-23.034
-21.316
-19.696
-18.18
-16.771
-15.474
-14.293
-13.235
-12.304
-11.503
-10.829
-10.28
-9.86
-9.574
-9.434
-9.447
-9.612
-9.93
-10.397
-11.006
-11.746
-12.598
-13.526
-14.497
-15.484
-16.469
-17.436
-18.369
-19.232
-19.985
-20.598
-21.048
-21.33
-21.437
-21.355
-21.099
-20.705
-20.239
-19.781
-19.387
-19.096
-18.953
-19.013
-19.341
-20.02
-21.101
-22.627
-24.666
-27.209
-30.184
-33.464
-36.769
-39.802
-42.342
-44.07
-44.628
-43.932
-42.037
-39.22
-36.128
-33.18
-30.549
-28.66
-27.927
-28.306
-29.436
-30.248
-29.035
-24.674
-16.212
-2.2
18.727
47.585
83.882
124.953
167.995
211.621
256.847
305.503
356.05
402.37
434.526
443.754
426.193
384.199
325.863
257.689
186.764
120.467
62.335
18.864
-7.976
-23.287
-30.618
-35.774
-41.59
-44.948
-44.849
-41.421
-35.949
-31.814
-30.563
-32.002
-35.579
-40.254
-45.252
-49.971
-53.604
-55.627
-55.901
-54.616
-52.231
-49.182
-45.81
-42.467
-39.501
-37.134
-35.47
-34.501
-34.118
-34.212
-34.688
-35.442
-36.378
-37.418
-38.488
-39.505
-40.373
-41
-41.315
-41.277
-40.864
-40.06
-38.848
-37.228
-35.223
-32.867
-30.197
-27.238
-24.011
-20.541
-16.866
-13.033
-9.096
-5.097
-1.065
2.98
7.019
11.041
15.033
18.994
22.932
26.853
30.758
34.645
38.506
42.339
46.145
49.924
53.676
57.397
61.083
64.727
68.324
71.866
75.345
78.748
82.062
85.276
88.381
91.366
94.222
96.942
99.515
101.934
104.192
106.28
108.192
109.918
111.452
112.785
113.912
114.828
115.526
116.004
116.259
116.287
116.089
115.664
115.014
114.139
113.043
111.73
110.206
108.476
106.549
104.434
102.139
99.676
97.056
94.291
91.395
88.379
85.259
82.047
78.758
75.406
72.005
68.57
65.115
61.654
58.202
54.773
51.378
48.031
44.743
41.525
38.387
35.337
32.384
29.534
26.793
24.167
21.658
19.269
17.002
14.857
12.834
10.931
9.145
7.472
5.908
4.449
3.088
1.819
0.636
-0.467
-1.498
-2.465
-3.374
-4.233
-5.05
-5.831
-6.583
-7.313
-8.026
-8.729
-9.425
-10.118
-10.81
-11.504
-12.202
-12.904
-13.61
-14.318
-15.028
-15.737
-16.442
-17.138
-17.822
-18.488
-19.131
-19.745
-20.323
-20.86
-21.348
-21.781
-22.152
-22.455
-22.683
-22.833
-22.897
-22.87
-22.748
-22.527
-22.206
-21.78
-21.25
-20.614
-19.874
-19.035
-18.102
-17.079
-15.973
-14.791
-13.542
-12.236
-10.881
-9.484
-8.054
-6.601
-5.137
-3.673
-2.224
-0.8
0.586
1.918
3.184
4.371
5.469
6.474
7.378
8.171
8.842
9.373
9.753
9.976
10.038
9.934
9.669
9.251
8.698
8.043
7.309
6.516
5.68
4.812
3.931
3.068
2.243
1.481
0.801
0.214
-0.264
-0.62
-0.879
-1.081
-1.276
-1.53
-1.875
-2.335
-2.963
-3.8
-4.895
-6.314
-8.067
-10.176
-12.721
-15.694
-19.031
-22.596
-26.053
-29.052
-31.382
-32.73
-32.759
-31.43
-28.792
-25.138
-21.263
-17.788
-15.071
-13.694
-14.088
-16.097
-19.322
-22.75
-24.48
-22.929
-16.884
-4.726
15.091
43.273
79.885
124.051
172.36
221.478
269.781
313.702
351.465
381.982
399.811
402.977
389.589
355.985
304.091
234.981
152.499
67.426
-9.092
-65.675
-95.859
-102.757
-95.366
-83.32
-73.118
-65.984
-59.034
-50.7
-41.459
-32.844
-27.486
-26.288
-28.341
-32.49
-37.198
-41.1
-43.685
-44.787
-44.385
-42.824
-40.517
-37.805
-35.145
-32.999
-31.577
-30.948
-31.086
-31.819
-33.001
-34.536
-36.27
-38.051
-39.76
-41.277
-42.527
-43.476
-44.084
-44.321
-44.171
-43.62
-42.675
-41.357
-39.688
-37.698
-35.417
-32.867
-30.081
-27.095
-23.951
-20.699
-17.379
-14.015
-10.632
-7.242
-3.859
-0.494
2.853
6.188
9.514
12.836
16.154
19.463
22.764
26.058
29.347
32.636
35.924
39.209
42.488
45.758
49.016
52.254
55.467
58.642
61.772
64.848
67.864
70.812
73.684
76.471
79.166
81.759
84.242
86.606
88.841
90.936
92.88
94.667
96.285
97.727
98.983
100.048
100.913
101.573
102.021
102.255
102.269
102.061
101.629
100.972
100.09
98.986
97.66
96.117
94.362
92.4
90.238
87.885
85.351
82.644
79.777
76.762
73.612
70.342
66.965
63.498
59.956
56.356
52.715
49.048
45.374
41.708
38.066
34.464
30.917
27.44
24.045
20.745
17.552
14.476
11.527
8.711
6.038
3.512
1.137
-1.082
-3.145
-5.049
-6.797
-8.389
-9.83
-11.123
-12.275
-13.291
-14.18
-14.949
-15.609
-16.168
-16.638
-17.028
-17.35
-17.616
-17.837
-18.024
-18.189
-18.342
-18.493
-18.652
-18.829
-19.03
-19.262
-19.531
-19.842
-20.199
-20.605
-21.062
-21.571
-22.131
-22.742
-23.4
-24.104
-24.847
-25.625
-26.43
-27.257
-28.096
-28.941
-29.781
-30.608
-31.413
-32.185
-32.917
-33.598
-34.218
-34.769
-35.24
-35.625
-35.917
-36.107
-36.192
-36.165
-36.024
-35.771
-35.405
-34.928
-34.342
-33.651
-32.861
-31.977
-31.006
-29.953
-28.824
-27.625
-26.369
-25.066
-23.728
-22.368
-20.998
-19.629
-18.276
-16.952
-15.667
-14.427
-13.24
-12.115
-11.067
-10.116
-9.277
-8.558
-7.969
-7.513
-7.192
-7.001
-6.926
-6.94
-7.02
-7.147
-7.308
-7.495
-7.692
-7.877
-8.024
-8.105
-8.103
-8.007
-7.797
-7.466
-7.034
-6.533
-6.021
-5.567
-5.211
-4.993
-4.968
-5.187
-5.714
-6.61
-7.901
-9.623
-11.856
-14.612
-17.843
-21.394
-24.93
-28.114
-30.697
-32.388
-32.851
-31.934
-29.656
-26.316
-22.668
-19.433
-17.07
-16.079
-16.918
-19.65
-23.909
-28.706
-32.221
-32.656
-28.393
-17.576
1.541
30.416
68.774
113.999
163.001
212.609
262.647
315.999
371.589
424.633
465.498
480.172
461.819
411.553
335.377
244.255
147.599
51.966
-33.959
-100.253
-140.851
-153.771
-144.315
-124.627
-103.129
-84.243
-68.611
-52.413
-35.158
-18.767
-5.168
2.563
3.562
-0.745
-8.869
-18.782
-28.3
-36.379
-42.39
-45.597
-45.901
-43.601
-39.069
-33.204
-27.163
-21.564
-16.778
-13.157
-10.706
-9.377
-9.132
-9.637
-10.46
-11.348
-12.096
-12.574
-12.79
-12.713
-12.303
-11.589
-10.6
-9.353
-7.877
-6.174
-4.232
-2.055
0.347
2.953
5.724
8.621
11.599
14.625
17.679
20.745
23.811
26.87
29.914
32.944
35.973
39.007
42.05
45.104
48.169
51.249
54.355
57.496
60.676
63.899
67.163
70.465
73.804
77.175
80.57
83.981
87.393
90.797
94.182
97.536
100.85
104.11
107.302
110.413
113.43
116.339
119.126
121.776
124.272
126.601
128.748
130.699
132.439
133.954
135.233
136.263
137.032
137.532
137.752
137.686
137.326
136.668
135.71
134.449
132.887
131.023
128.864
126.412
123.677
120.665
117.389
113.858
110.086
106.088
101.88
97.479
92.902
88.167
83.296
78.307
73.222
68.061
62.846
57.599
52.339
47.089
41.87
36.701
31.602
26.591
21.688
16.908
12.268
7.782
3.463
-0.678
-4.631
-8.385
-11.936
-15.276
-18.402
-21.313
-24.006
-26.484
-28.749
-30.804
-32.656
-34.311
-35.776
-37.061
-38.174
-39.126
-39.927
-40.588
-41.12
-41.536
-41.847
-42.065
-42.203
-42.271
-42.282
-42.248
-42.177
-42.082
-41.971
-41.854
-41.737
-41.627
-41.532
-41.457
-41.405
-41.382
-41.388
-41.425
-41.495
-41.595
-41.724
-41.88
-42.058
-42.254
-42.464
-42.681
-42.902
-43.119
-43.327
-43.521
-43.695
-43.844
-43.963
-44.047
-44.09
-44.089
-44.04
-43.941
-43.788
-43.582
-43.32
-43.005
-42.64
-42.229
-41.776
-41.285
-40.763
-40.217
-39.654
-39.082
-38.504
-37.928
-37.361
-36.814
-36.297
-35.821
-35.397
-35.034
-34.742
-34.532
-34.411
-34.387
-34.458
-34.629
-34.905
-35.297
-35.823
-36.495
-37.32
-38.304
-39.447
-40.746
-42.194
-43.773
-45.453
-47.207
-49.013
-50.852
-52.716
-54.588
-56.443
-58.253
-59.978
-61.588
-63.058
-64.369
-65.519
-66.523
-67.41
-68.225
-69.028
-69.871
-70.823
-71.951
-73.312
-74.972
-76.973
-79.379
-82.313
-85.835
-89.91
-94.4
-98.971
-103.258
-107.004
-109.896
-111.526
-111.697
-110.457
-108.188
-105.845
-104.404
-104.52
-106.816
-111.825
-119.583
-129.566
-140.476
-149.978
-155.643
-155.304
-146.728
-127.936
-97.394
-55.429
-4.77
51.084
108.227
165.51
224.762
284.273
339.287
380.899
396.052
378.322
328.544
251.888
158.517
57.95
-42.356
-132.529
-201.651
-243.685
-257.606
-249.938
-233.902
-218.227
-206.739
-199.224
-191.209
-181.592
-171.929
-163.724
-159.115
-158.307
-159.84
-162.502
-164.983
-166.122
-165.546
-163.251
-159.447
-154.648
-149.369
-143.999
-138.953
-134.66
-131.331
-129.012
-127.642
-127.024
-126.981
-127.391
-128.118
-129.024
-129.998
-130.922
-131.675
-132.19
-132.417
-132.312
-131.861
-131.041
-129.834
-128.25
-126.321
-124.078
-121.554
-118.775
-115.754
-112.52
-109.108
-105.56
-101.925
-98.234
-94.504
-90.748
-86.973
-83.184
-79.384
-75.565
-71.707
-67.799
-63.832
-59.804
-55.714
-51.561
-47.336
-43.037
-38.661
-34.21
-29.686
-25.096
-20.443
-15.737
-10.987
-6.208
-1.415
3.378
8.157
12.908
17.617
22.27
26.852
31.347
35.741
40.019
44.165
48.162
51.995
55.648
59.107
62.359
65.39
68.187
70.741
73.041
75.08
76.849
78.342
79.555
80.485
81.129
81.489
81.565
81.36
80.879
80.129
79.117
77.852
76.345
74.607
72.651
70.492
68.145
65.626
62.951
60.138
57.207
54.175
51.063
47.89
44.676
41.441
38.202
34.98
31.793
28.657
25.589
22.606
19.721
16.949
14.302
11.791
9.426
7.217
5.169
3.289
1.581
0.048
-1.308
-2.486
-3.488
-4.316
-4.971
-5.46
-5.787
-5.959
-5.983
-5.868
-5.623
-5.258
-4.784
-4.21
-3.548
-2.809
-2.004
-1.144
-0.24
0.697
1.656
2.628
3.603
4.572
5.527
6.461
7.367
8.239
9.073
9.866
10.616
11.318
11.974
12.581
13.141
13.655
14.124
14.552
14.942
15.298
15.625
15.93
16.218
16.496
16.769
17.044
17.33
17.633
17.958
18.313
18.704
19.137
19.619
20.156
20.75
21.408
22.132
22.924
23.787
24.72
25.72
26.782
27.905
29.082
30.31
31.581
32.889
34.228
35.593
36.98
38.38
39.786
41.185
42.569
43.926
45.248
46.524
47.743
48.894
49.97
50.97
51.889
52.717
53.441
54.04
54.502
54.819
54.987
55.002
54.867
54.589
54.186
53.692
53.136
52.54
51.918
51.278
50.638
50.024
49.469
49.005
48.649
48.412
48.306
48.332
48.468
48.676
48.89
49.034
49.044
48.859
48.415
47.652
46.501
44.901
42.786
40.071
36.726
32.801
28.418
23.831
19.337
15.2
11.729
9.315
8.19
8.332
9.485
11.06
12.39
13.062
12.697
10.793
7.162
2.168
-3.32
-7.753
-9.256
-6.373
2.287
18.404
43.21
77.142
119.851
169.689
223.941
279.882
334.439
383.563
423.133
449.381
459.009
451.345
428.413
392.07
343.824
283.021
207.577
120.098
29.061
-51.398
-106.793
-130.943
-127.701
-109.437
-89.231
-74.265
-65.532
-59.204
-52.361
-45.027
-38.628
-35.394
-35.88
-38.86
-42.913
-46.553
-48.731
-49.22
-48.097
-45.592
-42.191
-38.385
-34.58
-31.197
-28.586
-26.885
-26.099
-26.146
-26.839
-28.015
-29.552
-31.302
-33.13
-34.916
-36.528
-37.871
-38.897
-39.561
-39.841
-39.726
-39.197
-38.258
-36.937
-35.268
-33.289
-31.032
-28.52
-25.784
-22.864
-19.81
-16.678
-13.51
-10.333
-7.168
-4.03
-0.928
2.128
5.138
8.114
11.067
14.001
16.918
19.816
22.695
25.559
28.412
31.257
34.094
36.92
39.73
42.522
45.291
48.029
50.726
53.371
55.954
58.465
60.897
63.241
65.488
67.63
69.656
71.561
73.334
74.966
76.448
77.77
78.921
79.892
80.675
81.259
81.638
81.801
81.743
81.457
80.937
80.179
79.178
77.932
76.439
74.699
72.712
70.48
68.004
65.29
62.342
59.167
55.772
52.165
48.356
44.354
40.172
35.82
31.312
26.66
21.878
16.98
11.982
6.899
1.747
-3.458
-8.699
-13.96
-19.224
-24.475
-29.697
-34.875
-39.994
-45.039
-49.998
-54.856
-59.603
-64.227
-68.718
-73.066
-77.265
-81.306
-85.184
-88.895
-92.436
-95.804
-98.997
-102.015
-104.86
-107.532
-110.035
-112.37
-114.543
-116.558
-118.421
-120.137
-121.715
-123.161
-124.483
-125.69
-126.79
-127.792
-128.705
-129.537
-130.298
-130.997
-131.642
-132.241
-132.803
-133.334
-133.843
-134.334
-134.814
-135.287
-135.757
-136.229
-136.703
-137.183
-137.67
-138.164
-138.665
-139.174
-139.687
-140.203
-140.72
-141.235
-141.743
-142.24
-142.721
-143.181
-143.616
-144.018
-144.382
-144.702
-144.97
-145.182
-145.33
-145.409
-145.412
-145.334
-145.171
-144.919
-144.575
-144.136
-143.603
-142.975
-142.253
-141.441
-140.541
-139.557
-138.494
-137.355
-136.147
-134.874
-133.542
-132.16
-130.733
-129.272
-127.787
-126.289
-124.789
-123.299
-121.829
-120.394
-119.003
-117.665
-116.389
-115.183
-114.06
-113.038
-112.132
-111.347
-110.689
-110.16
-109.758
-109.479
-109.306
-109.212
-109.17
-109.158
-109.161
-109.174
-109.191
-109.192
-109.157
-109.056
-108.867
-108.589
-108.223
-107.765
-107.22
-106.608
-105.984
-105.441
-105.06
-104.893
-104.961
-105.267
-105.842
-106.734
-107.993
-109.661
-111.746
-114.245
-117.194
-120.599
-124.383
-128.357
-132.158
-135.361
-137.632
-138.664
-138.123
-135.846
-131.84
-126.351
-120.053
-113.691
-107.845
-103.112
-100.044
-98.792
-99.064
-100.033
-100.093
-97.437
-90.389
-77.14
-55.985
-25.809
13.635
61.561
115.91
173.826
232.023
286.644
333.551
368.821
389.325
392.957
378.915
347.807
301.448
242.789
175.763
104.896
34.713
-30.336
-86.291
-130.429
-161.383
-178.983
-184.146
-178.602
-164.705
-145.603
-124.82
-105.262
-88.821
-76.516
-68.801
-65.784
-67.041
-71.32
-76.776
-81.784
-85.441
-87.435
-87.645
-85.942
-82.379
-77.448
-72.08
-67.135
-63.049
-59.937
-57.77
-56.549
-56.288
-56.841
-57.846
-58.946
-59.904
-60.564
-60.889
-60.845
-60.36
-59.411
-58.016
-56.192
-53.972
-51.392
-48.459
-45.188
-41.61
-37.751
-33.656
-29.379
-24.97
-20.485
-15.965
-11.437
-6.925
-2.448
1.982
6.35
10.655
14.904
19.098
23.235
27.309
31.316
35.255
39.131
42.946
46.699
50.388
54.009
57.557
61.029
64.42
67.722
70.927
74.024
77.007
79.869
82.607
85.214
87.686
90.018
92.206
94.247
96.137
97.872
99.45
100.866
102.117
103.202
104.118
104.864
105.438
105.841
106.072
106.132
106.023
105.745
105.302
104.695
103.93
103.01
101.94
100.726
99.374
97.891
96.284
94.562
92.732
90.804
88.785
86.686
84.515
82.283
79.999
77.671
75.311
72.929
70.533
68.134
65.742
63.366
61.016
58.7
56.428
54.208
52.047
49.954
47.935
45.997
44.145
42.385
40.722
39.158
37.697
36.342
35.093
33.953
32.921
31.996
31.179
30.467
29.858
29.35
28.939
28.623
28.398
28.26
28.205
28.228
28.325
28.489
28.718
29.004
29.343
29.728
30.155
30.618
31.111
31.63
32.168
32.721
33.284
33.852
34.422
34.989
35.551
36.103
36.644
37.171
37.682
38.177
38.654
39.113
39.554
39.979
40.386
40.779
41.157
41.522
41.876
42.221
42.56
42.895
43.229
43.564
43.904
44.253
44.615
44.991
45.385
45.801
46.241
46.707
47.204
47.732
48.293
48.888
49.519
50.187
50.889
51.626
52.396
53.195
54.02
54.866
55.727
56.595
57.466
58.329
59.176
59.998
60.786
61.529
62.222
62.856
63.421
63.907
64.302
64.597
64.785
64.857
64.802
64.61
64.269
63.775
63.132
62.34
61.398
60.295
59.016
57.554
55.912
54.092
52.099
49.936
47.605
45.128
42.541
39.881
37.186
34.47
31.725
28.957
26.177
23.426
20.776
18.264
15.897
13.689
11.625
9.722
8.042
6.519
4.982
3.286
1.252
-1.151
-3.748
-6.523
-9.596
-12.939
-16.47
-19.964
-22.955
-25.293
-27.189
-28.656
-29.609
-30.011
-29.742
-28.987
-28.361
-28.268
-28.853
-30.28
-32.607
-35.781
-39.826
-44.539
-49.251
-53.011
-54.687
-53.114
-47.239
-36.277
-19.427
4.256
35.356
73.749
118.557
168.293
221.053
274.912
327.358
374.939
413.973
441.009
454.167
453.347
438.693
409.908
365.062
301.905
222.057
132.641
46.29
-23.436
-68.702
-90.164
-96.319
-96.544
-96.305
-96.532
-94.076
-87.478
-78.326
-69.016
-62.52
-60.133
-61.184
-64.677
-69.469
-74.272
-78.024
-80.128
-80.326
-78.807
-76.095
-72.65
-68.86
-65.203
-62.122
-59.87
-58.565
-58.144
-58.422
-59.252
-60.505
-62.05
-63.76
-65.519
-67.216
-68.746
-70.008
-70.926
-71.442
-71.516
-71.131
-70.273
-68.943
-67.167
-64.986
-62.436
-59.557
-56.375
-52.916
-49.217
-45.324
-41.287
-37.162
-32.988
-28.791
-24.597
-20.422
-16.278
-12.172
-8.102
-4.057
-0.035
3.966
7.94
11.882
15.788
19.658
23.489
27.277
31.018
34.705
38.329
41.884
45.359
48.742
52.019
55.177
58.202
61.083
63.808
66.367
68.748
70.941
72.937
74.726
76.3
77.647
78.761
79.632
80.253
80.617
80.718
80.551
80.111
79.396
78.404
77.134
75.587
73.764
71.668
69.305
66.68
63.801
60.676
57.315
53.729
49.931
45.934
41.752
37.402
32.9
28.262
23.507
18.654
13.721
8.728
3.694
-1.362
-6.42
-11.461
-16.465
-21.413
-26.287
-31.07
-35.743
-40.291
-44.698
-48.95
-53.033
-56.935
-60.646
-64.156
-67.456
-70.54
-73.401
-76.037
-78.443
-80.619
-82.564
-84.28
-85.769
-87.036
-88.084
-88.921
-89.553
-89.988
-90.236
-90.305
-90.207
-89.952
-89.551
-89.016
-88.358
-87.591
-86.724
-85.772
-84.746
-83.657
-82.518
-81.338
-80.13
-78.904
-77.668
-76.433
-75.206
-73.996
-72.811
-71.656
-70.539
-69.463
-68.434
-67.455
-66.53
-65.659
-64.845
-64.089
-63.389
-62.745
-62.155
-61.617
-61.128
-60.683
-60.279
-59.911
-59.572
-59.26
-58.966
-58.685
-58.409
-58.134
-57.852
-57.556
-57.24
-56.897
-56.52
-56.102
-55.637
-55.12
-54.542
-53.9
-53.185
-52.395
-51.523
-50.566
-49.52
-48.379
-47.143
-45.809
-44.375
-42.843
-41.211
-39.482
-37.659
-35.748
-33.753
-31.682
-29.541
-27.338
-25.08
-22.776
-20.434
-18.061
-15.666
-13.257
-10.846
-8.446
-6.068
-3.724
-1.425
0.815
2.982
5.065
7.059
8.954
10.743
12.41
13.935
15.302
16.502
17.529
18.376
19.045
19.539
19.873
20.079
20.183
20.211
20.177
20.087
19.953
19.797
19.649
19.544
19.499
19.515
19.596
19.752
19.97
20.214
20.411
20.454
20.266
19.8
19.016
17.87
16.303
14.245
11.63
8.433
4.632
0.176
-4.918
-10.57
-16.586
-22.595
-28.212
-33.12
-36.961
-39.351
-40.165
-39.442
-37.497
-35.078
-32.732
-30.806
-29.856
-30.336
-32.166
-34.895
-37.351
-37.658
-34.502
-26.538
-11.845
10.936
42.669
82.639
127.608
175.223
224.396
274.805
327.666
378.694
419.141
440.583
434.658
401.917
349.888
286.489
219.491
151.644
84.763
21.706
-33.031
-73.364
-99.137
-112.248
-115.88
-115.167
-110.416
-101.87
-91.626
-80.721
-71.542
-65.79
-63.143
-63.148
-65.037
-67.821
-70.569
-72.337
-72.541
-71.081
-68.278
-64.63
-60.542
-56.355
-52.445
-49.182
-46.794
-45.347
-44.748
-44.809
-45.372
-46.315
-47.517
-48.861
-50.233
-51.519
-52.597
-53.396
-53.862
-53.957
-53.667
-52.973
-51.86
-50.34
-48.446
-46.215
-43.683
-40.882
-37.829
-34.551
-31.089
-27.488
-23.799
-20.06
-16.293
-12.515
-8.738
-4.974
-1.229
2.499
6.222
9.949
13.681
17.418
21.156
24.892
28.629
32.368
36.108
39.848
43.58
47.301
51.005
54.685
58.331
61.932
65.474
68.946
72.338
75.638
78.837
81.924
84.887
87.717
90.404
92.937
95.306
97.498
99.504
101.312
102.915
104.302
105.465
106.397
107.091
107.542
107.745
107.697
107.396
106.839
106.026
104.96
103.641
102.072
100.259
98.207
95.922
93.413
90.689
87.759
84.635
81.329
77.854
74.223
70.452
66.555
62.547
58.446
54.268
50.031
45.752
41.449
37.14
32.843
28.575
24.352
20.193
16.112
12.124
8.244
4.486
0.861
-2.618
-5.942
-9.1
-12.084
-14.888
-17.506
-19.933
-22.166
-24.202
-26.043
-27.686
-29.135
-30.391
-31.459
-32.343
-33.049
-33.583
-33.953
-34.167
-34.234
-34.165
-33.969
-33.659
-33.244
-32.737
-32.15
-31.494
-30.782
-30.025
-29.235
-28.423
-27.601
-26.779
-25.966
-25.173
-24.408
-23.679
-22.994
-22.358
-21.777
-21.256
-20.798
-20.405
-20.081
-19.824
-19.636
-19.514
-19.457
-19.464
-19.529
-19.65
-19.821
-20.036
-20.289
-20.575
-20.884
-21.209
-21.542
-21.874
-22.197
-22.503
-22.782
-23.025
-23.225
-23.372
-23.459
-23.48
-23.426
-23.292
-23.071
-22.76
-22.354
-21.852
-21.252
-20.552
-19.753
-18.86
-17.875
-16.804
-15.651
-14.423
-13.126
-11.77
-10.362
-8.909
-7.418
-5.897
-4.357
-2.808
-1.263
0.267
1.77
3.234
4.645
5.989
7.258
8.445
9.544
10.547
11.441
12.208
12.837
13.321
13.654
13.833
13.858
13.737
13.487
13.141
12.724
12.259
11.759
11.232
10.694
10.165
9.671
9.235
8.871
8.585
8.393
8.305
8.306
8.356
8.385
8.308
8.066
7.628
6.956
6.002
4.717
3.043
0.936
-1.605
-4.608
-8.156
-12.253
-16.815
-21.618
-26.251
-30.317
-33.529
-35.538
-35.965
-34.683
-31.768
-27.682
-23.364
-19.587
-16.919
-16.008
-17.316
-20.739
-25.695
-30.808
-33.98
-33.245
-26.613
-11.925
12.552
46.826
89.11
136.745
187.189
240.755
298.685
358.796
414.513
453.695
464.696
443.695
393.894
325.593
249.098
168.34
87.021
8.671
-61.915
-115.472
-148.39
-163.784
-165.872
-161.594
-154.041
-141.32
-123.858
-102.943
-81.051
-62.245
-48.233
-39.298
-35.732
-36.804
-41.371
-48.067
-54.996
-60.897
-65.412
-68.274
-69.202
-68.186
-65.436
-61.602
-57.759
-54.56
-52.182
-50.72
-50.194
-50.585
-51.865
-53.789
-55.896
-57.856
-59.503
-60.755
-61.622
-62.097
-62.136
-61.735
-60.943
-59.805
-58.362
-56.635
-54.615
-52.306
-49.731
-46.93
-43.952
-40.849
-37.655
-34.389
-31.063
-27.686
-24.268
-20.817
-17.337
-13.82
-10.263
-6.67
-3.048
0.591
4.242
7.906
11.584
15.28
18.989
22.706
26.423
30.131
33.822
37.48
41.088
44.625
48.072
51.415
54.637
57.726
60.668
63.451
66.063
68.496
70.735
72.764
74.562
76.111
77.401
78.427
79.192
79.704
79.98
80.041
79.91
79.606
79.137
78.502
77.687
76.677
75.457
74.024
72.389
70.562
68.548
66.348
63.957
61.358
58.52
55.406
51.966
48.173
44.024
39.545
34.794
29.845
24.785
19.689
14.609
9.594
4.689
-0.059
-4.603
-8.88
-12.819
-16.331
-19.31
-21.677
-23.384
-24.422
-24.827
-24.664
-24.025
-22.987
-21.616
-19.967
-18.083
-16.004
-13.769
-11.422
-9.016
-6.62
-4.328
-2.215
-0.341
1.266
2.61
3.72
4.646
5.433
6.114
6.715
7.246
7.709
8.103
8.42
8.655
8.813
8.916
8.983
9.029
9.057
9.055
9.004
8.873
8.634
8.262
7.739
7.057
6.212
5.208
4.055
2.767
1.355
-0.176
-1.82
-3.572
-5.425
-7.368
-9.388
-11.47
-13.598
-15.755
-17.925
-20.092
-22.243
-24.367
-26.453
-28.495
-30.484
-32.41
-34.268
-36.046
-37.735
-39.328
-40.815
-42.189
-43.442
-44.57
-45.567
-46.429
-47.155
-47.742
-48.191
-48.502
-48.676
-48.716
-48.625
-48.41
-48.078
-47.637
-47.093
-46.456
-45.736
-44.943
-44.088
-43.179
-42.224
-41.234
-40.22
-39.194
-38.168
-37.154
-36.161
-35.202
-34.288
-33.431
-32.639
-31.916
-31.267
-30.699
-30.224
-29.858
-29.612
-29.492
-29.504
-29.65
-29.927
-30.328
-30.835
-31.42
-32.056
-32.721
-33.399
-34.078
-34.74
-35.361
-35.916
-36.378
-36.727
-36.952
-37.036
-36.972
-36.781
-36.499
-36.185
-35.916
-35.737
-35.698
-35.864
-36.294
-37.061
-38.234
-39.843
-41.926
-44.565
-47.768
-51.485
-55.573
-59.694
-63.507
-66.765
-69.156
-70.343
-70.177
-68.648
-66.014
-63.019
-60.359
-58.471
-57.86
-58.942
-61.73
-65.904
-70.548
-73.8
-73.802
-69.09
-57.946
-38.745
-10.412
27.6
73.743
124.148
175.326
224.605
271.61
317.454
359.666
392.879
408.694
398.06
358.595
292.297
204.664
106.159
6.177
-84.463
-152.791
-193.032
-205.108
-195.563
-178.065
-161.463
-149.257
-141.184
-132.658
-122.34
-111.791
-102.609
-96.989
-95.19
-95.755
-97.421
-98.912
-99.168
-97.902
-95.171
-91.146
-86.279
-81.049
-75.811
-70.962
-66.893
-63.756
-61.556
-60.215
-59.531
-59.339
-59.529
-59.944
-60.435
-60.875
-61.119
-61.086
-60.742
-60.052
-58.997
-57.57
-55.754
-53.559
-51.022
-48.174
-45.051
-41.681
-38.081
-34.284
-30.329
-26.26
-22.13
-17.974
-13.813
-9.664
-5.537
-1.438
2.627
6.662
10.684
14.703
18.724
22.751
26.782
30.818
34.863
38.922
42.995
47.084
51.182
55.287
59.394
63.495
67.581
71.641
75.66
79.624
83.522
87.343
91.073
94.7
98.21
101.591
104.831
107.916
110.833
113.568
116.107
118.438
120.548
122.426
124.06
125.441
126.559
127.407
127.978
128.267
128.27
127.985
127.409
126.542
125.387
123.946
122.223
120.224
117.956
115.428
112.65
109.634
106.391
102.937
99.286
95.454
91.457
87.314
83.042
78.658
74.184
69.637
65.037
60.404
55.758
51.117
46.5
41.925
37.41
32.97
28.62
24.376
20.249
16.252
12.396
8.689
5.142
1.76
-1.452
-4.487
-7.345
-10.024
-12.524
-14.846
-16.994
-18.971
-20.782
-22.434
-23.932
-25.286
-26.503
-27.592
-28.563
-29.427
-30.194
-30.876
-31.483
-32.028
-32.52
-32.971
-33.39
-33.789
-34.176
-34.56
-34.95
-35.352
-35.776
-36.226
-36.709
-37.229
-37.791
-38.397
-39.05
-39.749
-40.496
-41.287
-42.123
-42.999
-43.913
-44.862
-45.84
-46.843
-47.864
-48.898
-49.938
-50.977
-52.007
-53.02
-54.008
-54.964
-55.881
-56.752
-57.568
-58.324
-59.012
-59.629
-60.168
-60.626
-60.997
-61.278
-61.466
-61.561
-61.561
-61.468
-61.282
-61.006
-60.646
-60.208
-59.699
-59.125
-58.495
-57.817
-57.1
-56.353
-55.586
-54.806
-54.022
-53.246
-52.49
-51.766
-51.086
-50.462
-49.905
-49.429
-49.048
-48.768
-48.594
-48.532
-48.587
-48.77
-49.096
-49.575
-50.207
-50.995
-51.941
-53.042
-54.29
-55.665
-57.134
-58.667
-60.24
-61.842
-63.462
-65.084
-66.685
-68.232
-69.7
-71.077
-72.36
-73.535
-74.585
-75.513
-76.352
-77.168
-78.039
-79.016
-80.121
-81.38
-82.826
-84.491
-86.422
-88.67
-91.245
-94.184
-97.559
-101.338
-105.473
-109.863
-114.179
-118.05
-121.181
-123.129
-123.503
-122.347
-119.673
-115.548
-110.82
-106.357
-102.709
-101.009
-101.232
-101.369
-101.246
-101.23
-101.846
-106.286
-112.334
-112.616
-100.33
-67.626
-14.435
50.774
119.648
183.145
236.595
280.634
314.193
336.041
344.274
335.524
309.225
266.945
211.31
146.642
77.546
8.287
-56.886
-114.027
-160.358
-194.399
-215.846
-225.631
-225.474
-217.517
-204.243
-188.332
-172.001
-156.735
-143.423
-132.435
-123.877
-117.577
-113.07
-109.801
-107.412
-105.728
-104.706
-104.218
-103.898
-103.522
-103.061
-102.435
-101.475
-100.052
-98.073
-95.663
-93.244
-91.084
-89.257
-87.836
-86.869
-86.34
-86.198
-86.267
-86.227
-85.874
-85.129
-83.948
-82.338
-80.314
-77.88
-75.081
-72
-68.692
-65.185
-61.498
-57.636
-53.622
-49.509
-45.334
-41.122
-36.895
-32.657
-28.413
-24.167
-19.913
-15.637
-11.327
-6.979
-2.589
1.837
6.299
10.794
15.324
19.888
24.486
29.116
33.776
38.461
43.163
47.871
52.573
57.255
61.902
66.503
71.045
75.514
79.899
84.185
88.359
92.41
96.323
100.083
103.675
107.085
110.299
113.303
116.086
118.634
120.937
122.984
124.766
126.276
127.506
128.451
129.106
129.468
129.537
129.31
128.79
127.978
126.878
125.495
123.836
121.907
119.719
117.283
114.609
111.711
108.604
105.302
101.821
98.178
94.391
90.477
86.456
82.345
78.166
73.938
69.679
65.411
61.151
56.919
52.732
48.61
44.567
40.621
36.786
33.077
29.507
26.088
22.83
19.744
16.839
14.12
11.594
9.266
7.137
5.21
3.483
1.957
0.628
-0.508
-1.456
-2.222
-2.814
-3.24
-3.508
-3.63
-3.614
-3.473
-3.219
-2.863
-2.419
-1.898
-1.314
-0.679
-0.006
0.692
1.403
2.114
2.816
3.496
4.146
4.755
5.316
5.821
6.263
6.638
6.94
7.167
7.316
7.387
7.38
7.296
7.139
6.911
6.617
6.263
5.856
5.401
4.906
4.379
3.829
3.266
2.699
2.137
1.59
1.068
0.583
0.142
-0.244
-0.568
-0.821
-0.997
-1.09
-1.095
-1.01
-0.831
-0.559
-0.191
0.272
0.827
1.474
2.209
3.027
3.924
4.892
5.921
7.002
8.123
9.273
10.438
11.607
12.763
13.893
14.988
16.035
17.023
17.934
18.747
19.442
20.011
20.447
20.743
20.899
20.915
20.802
20.589
20.299
19.954
19.569
19.145
18.687
18.21
17.74
17.305
16.926
16.599
16.315
16.073
15.865
15.668
15.425
15.031
14.389
13.432
12.12
10.445
8.379
5.869
2.864
-0.673
-4.758
-9.347
-14.414
-19.997
-26.04
-32.388
-38.782
-44.776
-49.97
-54.125
-56.924
-57.992
-57.202
-54.566
-50.306
-45.097
-39.477
-33.767
-28.618
-24.637
-21.827
-19.884
-18.101
-15.088
-9.589
-0.451
14.26
36.636
66.784
103.057
143.749
186.236
231
282.078
338.465
395.372
443.545
468.197
461.225
422.573
356.607
272.811
180.189
85.548
-2.202
-72.484
-118.48
-138.448
-137.979
-128.928
-119.48
-112.73
-107.455
-99.257
-87.506
-74.368
-62.104
-53.368
-48.793
-47.655
-49.626
-53.696
-58.344
-62.454
-65.349
-66.846
-67.182
-66.454
-64.447
-61.244
-57.438
-53.753
-50.699
-48.459
-46.931
-46.029
-45.846
-46.422
-47.584
-49.024
-50.43
-51.585
-52.423
-52.945
-53.107
-52.865
-52.194
-51.106
-49.649
-47.875
-45.81
-43.46
-40.827
-37.923
-34.775
-31.431
-27.936
-24.342
-20.681
-16.972
-13.233
-9.476
-5.711
-1.947
1.819
5.6
9.402
13.226
17.067
20.917
24.779
28.657
32.555
36.475
40.414
44.367
48.329
52.295
56.257
60.205
64.126
68.005
71.83
75.589
79.271
82.864
86.356
89.733
92.984
96.096
99.058
101.856
104.477
106.909
109.14
111.16
112.958
114.524
115.85
116.928
117.75
118.311
118.606
118.631
118.381
117.857
117.056
115.981
114.633
113.016
111.134
108.995
106.605
103.973
101.11
98.026
94.734
91.247
87.579
83.745
79.762
75.644
71.41
67.077
62.662
58.183
53.659
49.105
44.539
39.979
35.441
30.94
26.492
22.113
17.815
13.612
9.517
5.541
1.694
-2.014
-5.576
-8.985
-12.236
-15.323
-18.244
-20.997
-23.582
-25.997
-28.247
-30.332
-32.257
-34.028
-35.65
-37.131
-38.477
-39.697
-40.799
-41.791
-42.684
-43.486
-44.207
-44.855
-45.44
-45.972
-46.459
-46.911
-47.336
-47.741
-48.136
-48.525
-48.917
-49.316
-49.727
-50.153
-50.599
-51.067
-51.559
-52.075
-52.616
-53.18
-53.766
-54.371
-54.991
-55.621
-56.256
-56.89
-57.517
-58.13
-58.724
-59.289
-59.819
-60.307
-60.746
-61.129
-61.45
-61.701
-61.877
-61.972
-61.981
-61.901
-61.728
-61.46
-61.097
-60.639
-60.087
-59.445
-58.715
-57.902
-57.01
-56.046
-55.017
-53.928
-52.788
-51.605
-50.387
-49.148
-47.9
-46.655
-45.425
-44.225
-43.068
-41.969
-40.941
-39.992
-39.132
-38.371
-37.722
-37.205
-36.834
-36.612
-36.548
-36.645
-36.902
-37.317
-37.876
-38.549
-39.311
-40.14
-41.021
-41.948
-42.907
-43.873
-44.819
-45.713
-46.535
-47.288
-47.962
-48.542
-49.029
-49.447
-49.854
-50.345
-50.989
-51.829
-52.889
-54.191
-55.788
-57.74
-60.096
-62.898
-66.131
-69.799
-73.973
-78.643
-83.701
-88.923
-93.9
-98.223
-101.639
-103.811
-104.347
-103.117
-100.14
-95.747
-90.742
-85.774
-81.298
-77.978
-76.341
-76.331
-77.526
-78.851
-78.54
-74.908
-66.23
-50.426
-25.492
8.395
49.061
94.459
141.671
191.368
247.887
309.564
371.652
424.166
449.56
439.529
392.403
311.49
212.716
109.119
12.277
-64.112
-117.308
-147.811
-159.666
-164.418
-167.827
-171.467
-174.775
-172.52
-162.979
-148.41
-131.694
-116.486
-104.612
-95.848
-89.725
-85.996
-84.7
-85.506
-87.604
-90.176
-92.468
-94.177
-95.39
-95.918
-95.358
-93.682
-91.11
-88.059
-85.184
-82.796
-80.867
-79.469
-78.708
-78.597
-79.111
-80.035
-80.934
-81.554
-81.806
-81.633
-81.055
-80.066
-78.612
-76.715
-74.463
-71.916
-69.124
-66.109
-62.851
-59.362
-55.68
-51.85
-47.93
-43.959
-39.952
-35.922
-31.878
-27.826
-23.776
-19.725
-15.66
-11.576
-7.468
-3.34
0.798
4.945
9.101
13.269
17.452
21.65
25.856
30.064
34.269
38.462
42.631
46.766
50.85
54.87
58.816
62.675
66.435
70.085
73.611
77.002
80.243
83.322
86.225
88.939
91.45
93.745
95.814
97.644
99.225
100.547
101.601
102.381
102.881
103.093
103.015
102.644
101.978
101.018
99.766
98.223
96.395
94.287
91.907
89.264
86.367
83.227
79.858
76.273
72.487
68.516
64.377
60.088
55.667
51.135
46.509
41.813
37.064
32.286
27.497
22.718
17.97
13.273
8.644
4.104
-0.331
-4.644
-8.82
-12.845
-16.704
-20.387
-23.884
-27.185
-30.282
-33.17
-35.844
-38.301
-40.538
-42.556
-44.356
-45.941
-47.314
-48.481
-49.448
-50.224
-50.817
-51.236
-51.492
-51.596
-51.56
-51.395
-51.116
-50.734
-50.262
-49.714
-49.104
-48.443
-47.745
-47.022
-46.286
-45.547
-44.817
-44.103
-43.416
-42.761
-42.146
-41.578
-41.06
-40.597
-40.191
-39.844
-39.556
-39.327
-39.155
-39.037
-38.969
-38.947
-38.964
-39.017
-39.097
-39.199
-39.314
-39.434
-39.552
-39.661
-39.752
-39.817
-39.847
-39.835
-39.775
-39.659
-39.481
-39.237
-38.922
-38.534
-38.074
-37.54
-36.933
-36.254
-35.505
-34.69
-33.812
-32.873
-31.878
-30.83
-29.736
-28.605
-27.447
-26.273
-25.092
-23.914
-22.749
-21.61
-20.507
-19.444
-18.425
-17.461
-16.563
-15.753
-15.049
-14.46
-13.994
-13.658
-13.449
-13.367
-13.399
-13.519
-13.701
-13.927
-14.181
-14.464
-14.767
-15.069
-15.343
-15.553
-15.673
-15.697
-15.613
-15.409
-15.102
-14.72
-14.322
-13.997
-13.799
-13.773
-13.968
-14.434
-15.237
-16.454
-18.138
-20.355
-23.206
-26.707
-30.797
-35.328
-39.953
-44.305
-48.1
-50.985
-52.59
-52.787
-51.654
-49.545
-47.297
-45.696
-45.201
-46.26
-49.189
-53.857
-59.732
-65.689
-69.722
-69.779
-64.21
-51.39
-30.061
0.462
40.319
88.668
143.394
201.691
260.452
316.172
365.362
404.49
430.179
439.767
432.503
409.827
373.709
325.928
265.722
191.274
104.767
13.537
-68.93
-128.757
-159.524
-163.648
-151.464
-133.908
-117
-101.925
-86.122
-68.246
-49.588
-32.334
-19.366
-12.247
-10.626
-13.441
-18.98
-25.328
-31.101
-35.563
-38.275
-38.89
-37.353
-33.852
-28.843
-23.203
-17.809
-13.103
-9.319
-6.606
-4.952
-4.318
-4.585
-5.414
-6.396
-7.252
-7.815
-8.005
-7.821
-7.245
-6.251
-4.853
-3.096
-1.028
1.318
3.931
6.815
9.969
13.366
16.967
20.719
24.568
28.478
32.43
36.406
40.394
44.386
48.372
52.355
56.347
60.354
64.377
68.412
72.454
76.502
80.562
84.638
88.733
92.847
96.974
101.108
105.244
109.375
113.489
117.575
121.617
125.601
129.517
133.353
137.098
140.738
144.26
147.653
150.905
154.004
156.936
159.691
162.255
164.617
166.767
168.694
170.39
171.845
173.052
174.005
174.699
175.13
175.295
175.191
174.82
174.182
173.279
172.115
170.694
169.023
167.109
164.96
162.586
159.998
157.207
154.226
151.068
147.748
144.28
140.678
136.958
133.135
129.226
125.246
121.211
117.137
113.04
108.935
104.838
100.763
96.725
92.735
88.807
84.951
81.179
77.5
73.923
70.454
67.101
63.87
60.764
57.788
54.943
52.232
49.654
47.209
44.897
42.714
40.658
38.725
36.912
35.213
33.626
32.143
30.761
29.474
28.275
27.161
26.123
25.158
24.258
23.419
22.634
21.899
21.209
20.559
19.945
19.363
18.811
18.286
17.786
17.308
16.851
16.413
15.996
15.598
15.219
14.862
14.525
14.212
13.924
13.663
13.431
13.23
13.062
12.929
12.833
12.775
12.756
12.777
12.838
12.941
13.085
13.272
13.498
13.764
14.069
14.41
14.784
15.187
15.614
16.057
16.512
16.971
17.429
17.876
18.307
18.714
19.094
19.441
19.748
20.007
20.208
20.344
20.409
20.397
20.299
20.109
19.819
19.429
18.941
18.354
17.664
16.86
15.931
14.867
13.671
12.341
10.881
9.291
7.581
5.77
3.89
1.971
0.037
-1.898
-3.82
-5.707
-7.525
-9.24
-10.815
-12.227
-13.465
-14.517
-15.375
-16.046
-16.548
-16.918
-17.224
-17.533
-17.906
-18.418
-19.13
-20.099
-21.412
-23.181
-25.458
-28.234
-31.4
-34.736
-38.026
-41.094
-43.717
-45.609
-46.567
-46.526
-45.697
-44.622
-43.875
-43.887
-45.007
-47.526
-51.576
-57.061
-63.321
-69.009
-72.455
-72.027
-66.346
-54.089
-33.879
-4.612
34.042
80.451
131.028
182.263
231.902
280.429
329.492
377.561
418.462
441.64
437.548
402.784
341.415
263.036
176.491
88.6
5.235
-68.058
-124.22
-157.415
-168.541
-163.014
-147.706
-131.652
-118.302
-107.903
-102.458
-98.872
-95.333
-91.899
-86.07
-79.565
-74.276
-70.041
-67.592
-65.988
-64.614
-64.047
-64.446
-65.989
-68.478
-71.468
-74.857
-78.464
-81.788
-84.462
-86.231
-87.118
-87.59
-87.945
-88.235
-88.54
-88.927
-89.435
-90.115
-90.865
-91.4
-91.552
-91.261
-90.499
-89.318
-87.756
-85.82
-83.558
-81.05
-78.352
-75.515
-72.573
-69.538
-66.431
-63.275
-60.088
-56.887
-53.685
-50.487
-47.295
-44.1
-40.899
-37.69
-34.473
-31.254
-28.034
-24.814
-21.595
-18.38
-15.175
-11.985
-8.815
-5.666
-2.543
0.545
3.589
6.578
9.499
12.345
15.108
17.779
20.349
22.809
25.151
27.368
29.451
31.392
33.181
34.808
36.263
37.539
38.627
39.52
40.21
40.692
40.958
41.005
40.83
40.428
39.797
38.937
37.847
36.528
34.982
33.213
31.226
29.026
26.619
24.015
21.222
18.25
15.109
11.811
8.368
4.792
1.098
-2.701
-6.591
-10.557
-14.583
-18.653
-22.752
-26.864
-30.973
-35.063
-39.119
-43.126
-47.071
-50.939
-54.717
-58.394
-61.958
-65.4
-68.711
-71.882
-74.906
-77.779
-80.497
-83.055
-85.454
-87.691
-89.767
-91.683
-93.443
-95.049
-96.504
-97.814
-98.984
-100.019
-100.926
-101.713
-102.385
-102.952
-103.421
-103.801
-104.099
-104.325
-104.485
-104.589
-104.644
-104.658
-104.637
-104.588
-104.516
-104.427
-104.325
-104.214
-104.096
-103.974
-103.85
-103.722
-103.593
-103.46
-103.322
-103.178
-103.026
-102.861
-102.682
-102.484
-102.265
-102.021
-101.748
-101.442
-101.098
-100.715
-100.29
-99.818
-99.297
-98.725
-98.1
-97.421
-96.689
-95.902
-95.062
-94.171
-93.232
-92.252
-91.235
-90.188
-89.117
-88.03
-86.935
-85.842
-84.757
-83.688
-82.643
-81.631
-80.662
-79.748
-78.899
-78.125
-77.436
-76.843
-76.357
-75.985
-75.729
-75.594
-75.583
-75.704
-75.971
-76.389
-76.96
-77.686
-78.566
-79.594
-80.761
-82.046
-83.415
-84.838
-86.29
-87.753
-89.214
-90.652
-92.04
-93.342
-94.53
-95.587
-96.503
-97.261
-97.842
-98.244
-98.502
-98.675
-98.838
-99.041
-99.299
-99.634
-100.093
-100.731
-101.612
-102.796
-104.279
-106.08
-108.277
-110.87
-113.795
-116.87
-119.709
-121.936
-123.315
-123.557
-122.361
-119.677
-115.577
-110.449
-105.141
-100.339
-96.492
-94.144
-93.649
-94.805
-97.01
-99.038
-99.02
-95.233
-86.09
-69.797
-44.667
-10.8
29.775
74.676
120.918
168.309
220.058
275.847
331.724
378.833
403.207
395.905
355.453
287.779
205.051
119.815
42.644
-20.576
-66.74
-96.348
-114.328
-124.363
-130.127
-133.241
-131.665
-125.101
-114.638
-102.54
-92.281
-85.565
-82.56
-82.796
-85.174
-88.808
-92.806
-96.026
-97.778
-97.829
-96.29
-93.599
-90.176
-86.355
-82.548
-79.204
-76.587
-74.8
-73.804
-73.435
-73.554
-74.061
-74.838
-75.755
-76.705
-77.586
-78.294
-78.762
-78.937
-78.771
-78.243
-77.337
-76.042
-74.364
-72.328
-69.965
-67.31
-64.392
-61.232
-57.856
-54.304
-50.618
-46.852
-43.047
-39.23
-35.421
-31.637
-27.891
-24.192
-20.541
-16.93
-13.349
-9.797
-6.273
-2.78
0.679
4.107
7.509
10.886
14.239
17.564
20.859
24.121
27.347
30.53
33.661
36.731
39.73
42.651
45.487
48.232
50.877
53.415
55.84
58.144
60.32
62.362
64.26
66.006
67.593
69.014
70.262
71.331
72.213
72.905
73.401
73.698
73.791
73.68
73.36
72.833
72.097
71.154
70.007
68.658
67.111
65.373
63.45
61.349
59.078
56.647
54.066
51.345
48.497
45.534
42.468
39.314
36.084
32.794
29.459
26.093
22.712
19.331
15.965
12.628
9.334
6.099
2.935
-0.146
-3.131
-6.01
-8.771
-11.406
-13.907
-16.267
-18.479
-20.54
-22.445
-24.191
-25.779
-27.207
-28.478
-29.593
-30.556
-31.371
-32.044
-32.581
-32.989
-33.278
-33.454
-33.529
-33.511
-33.412
-33.241
-33.011
-32.731
-32.414
-32.068
-31.707
-31.339
-30.974
-30.622
-30.291
-29.989
-29.724
-29.5
-29.324
-29.199
-29.129
-29.116
-29.162
-29.267
-29.431
-29.651
-29.926
-30.251
-30.623
-31.036
-31.484
-31.959
-32.455
-32.964
-33.477
-33.985
-34.477
-34.946
-35.38
-35.771
-36.11
-36.388
-36.596
-36.726
-36.771
-36.727
-36.586
-36.346
-36.004
-35.56
-35.013
-34.365
-33.621
-32.783
-31.855
-30.845
-29.757
-28.599
-27.379
-26.102
-24.779
-23.422
-22.043
-20.656
-19.274
-17.911
-16.579
-15.296
-14.076
-12.926
-11.859
-10.883
-10.015
-9.275
-8.681
-8.241
-7.962
-7.847
-7.895
-8.103
-8.457
-8.931
-9.5
-10.144
-10.85
-11.617
-12.436
-13.287
-14.144
-14.965
-15.732
-16.443
-17.093
-17.674
-18.191
-18.665
-19.153
-19.747
-20.501
-21.439
-22.57
-23.898
-25.466
-27.335
-29.558
-32.171
-35.196
-38.675
-42.61
-46.935
-51.471
-55.877
-59.761
-62.789
-64.665
-65.078
-63.92
-61.3
-57.535
-53.381
-49.593
-46.655
-45.074
-45.273
-47.234
-50.51
-54.113
-56.223
-54.976
-48.847
-36.171
-15.545
13.845
52.17
98.54
150.842
206.381
262.126
314.478
359.856
394.87
416.543
422.935
413.122
387.294
346.979
294.883
234.373
169.426
104.259
42.808
-11.096
-54.47
-85.924
-105.349
-113.595
-112.41
-104.031
-90.92
-76.053
-62.175
-50.909
-43.005
-38.524
-36.972
-37.682
-39.89
-42.452
-44.2
-44.555
-43.404
-40.975
-37.726
-34.048
-30.247
-26.737
-23.946
-22.088
-21.21
-21.216
-21.891
-23.069
-24.63
-26.426
-28.311
-30.151
-31.802
-33.161
-34.182
-34.821
-35.053
-34.865
-34.237
-33.169
-31.69
-29.834
-27.641
-25.146
-22.374
-19.355
-16.13
-12.745
-9.256
-5.705
-2.116
1.49
5.1
8.703
12.289
15.858
19.419
22.981
26.547
30.117
33.688
37.256
40.824
44.394
47.967
51.541
55.111
58.671
62.218
65.743
69.238
72.693
76.093
79.427
82.686
85.86
88.939
91.913
94.77
97.502
100.099
102.551
104.848
106.979
108.933
110.701
112.274
113.645
114.804
115.746
116.464
116.953
117.21
117.232
117.017
116.562
115.869
114.939
113.772
112.373
110.746
108.895
106.827
104.55
102.072
99.402
96.551
93.53
90.352
87.031
83.579
80.011
76.343
72.59
68.768
64.894
60.985
57.057
53.126
49.21
45.324
41.484
37.704
33.998
30.38
26.862
23.456
20.171
17.018
14.006
11.141
8.431
5.882
3.497
1.279
-0.769
-2.646
-4.352
-5.89
-7.261
-8.469
-9.518
-10.414
-11.163
-11.773
-12.252
-12.607
-12.85
-12.988
-13.033
-12.994
-12.883
-12.709
-12.483
-12.215
-11.915
-11.592
-11.256
-10.914
-10.575
-10.245
-9.931
-9.639
-9.374
-9.139
-8.938
-8.773
-8.646
-8.558
-8.508
-8.496
-8.52
-8.577
-8.664
-8.778
-8.912
-9.062
-9.222
-9.384
-9.542
-9.69
-9.819
-9.921
-9.99
-10.017
-9.995
-9.919
-9.78
-9.572
-9.29
-8.929
-8.487
-7.96
-7.347
-6.647
-5.861
-4.992
-4.045
-3.022
-1.929
-0.771
0.444
1.71
3.019
4.366
5.741
7.136
8.539
9.937
11.32
12.675
13.989
15.25
16.441
17.553
18.579
19.511
20.34
21.054
21.634
22.068
22.353
22.482
22.455
22.273
21.943
21.484
20.932
20.315
19.661
18.987
18.3
17.617
16.962
16.363
15.85
15.441
15.132
14.936
14.865
14.915
15.059
15.229
15.324
15.269
15.012
14.521
13.768
12.695
11.249
9.386
7.07
4.324
1.168
-2.453
-6.514
-10.891
-15.374
-19.549
-22.985
-25.464
-26.728
-26.425
-24.459
-20.853
-15.868
-10.281
-4.794
0.296
4.689
7.933
9.932
11.066
12.02
14.964
23.164
37.754
58.967
86.273
114.8
142.582
172.493
206.654
253.023
317.602
393.409
469.869
529.941
554.36
538.781
487.296
408.457
315.364
216.044
115.207
21.604
-54.106
-105.236
-127.565
-125.022
-109.431
-86.502
-62.145
-41.458
-23.797
-14.215
-14.128
-18.45
-24.907
-28.451
-26.773
-23.698
-20.758
-18.802
-18.095
-16.541
-13.42
-9.33
-4.716
-0.266
3.522
6.508
8.596
9.702
9.911
9.459
8.52
7.22
5.695
4.05
2.402
0.919
-0.291
-1.178
-1.7
-1.832
-1.563
-0.865
0.26
1.782
3.666
5.875
8.376
11.147
14.16
17.376
20.748
24.222
27.756
31.325
34.912
38.504
42.092
45.67
49.238
52.81
56.397
60.005
63.636
67.285
70.954
74.644
78.36
82.102
85.87
89.657
93.458
97.267
101.077
104.876
108.652
112.389
116.073
119.692
123.233
126.684
130.032
133.264
136.367
139.33
142.139
144.784
147.25
149.525
151.598
153.458
155.096
156.501
157.666
158.583
159.245
159.65
159.792
159.668
159.278
158.621
157.699
156.514
155.069
153.371
151.424
149.237
146.819
144.18
141.332
138.286
135.056
131.655
128.1
124.406
120.589
116.666
112.653
108.567
104.428
100.25
96.054
91.855
87.67
83.517
79.412
75.369
71.403
67.528
63.757
60.101
56.572
53.178
49.93
46.833
43.896
41.122
38.516
36.082
33.824
31.74
29.828
28.083
26.502
25.08
23.815
22.702
21.724
20.878
20.172
19.609
19.196
18.923
18.755
18.678
18.709
18.817
18.936
19.011
18.985
18.843
18.648
18.412
18.048
17.631
17.434
17.504
17.755
18.218
18.582
19.421
22.469
27.314
32.376
34.994
30.215
18.434
4.6
-6.321
-7.284
2.037
15.01
26.522
31.01
27.606
21.282
15.062
11.047
9.837
9.407
8.864
8.277
7.583
7.096
6.89
6.697
6.439
6.167
5.874
5.552
5.211
4.862
4.527
4.252
4.045
3.882
3.75
3.646
3.563
3.497
3.444
3.394
3.339
3.274
3.193
3.086
2.947
2.766
2.532
2.236
1.869
1.426
0.904
0.301
-0.392
-1.184
-2.09
-3.122
-4.286
-5.587
-7.027
-8.599
-10.295
-12.094
-13.963
-15.873
-17.803
-19.732
-21.65
-23.539
-25.377
-27.144
-28.818
-30.373
-31.798
-33.082
-34.222
-35.254
-36.22
-37.179
-38.209
-39.36
-40.685
-42.247
-44.091
-46.266
-48.823
-51.763
-55.119
-58.973
-63.326
-68.103
-73.125
-78.021
-82.445
-86.157
-88.82
-90.08
-89.805
-88.015
-85.113
-81.946
-79.208
-77.382
-77.018
-78.474
-81.646
-86.075
-90.491
-92.909
-91.654
-85.105
-71.44
-49.254
-17.805
21.961
66.924
113.667
159.726
205.277
251.641
296.808
335.606
358.636
355.878
323.642
263.177
181.691
90.737
1.201
-75.631
-131.594
-164.146
-175.793
-174.894
-169.559
-164.307
-160.03
-153.589
-143.315
-130.46
-117.326
-106.987
-100.727
-97.885
-97.602
-98.855
-100.774
-102.762
-104.03
-104.083
-103.006
-101.079
-98.607
-95.889
-93.053
-90.225
-87.816
-86.09
-85.05
-84.645
-84.723
-85.127
-85.851
-86.88
-88.016
-89.067
-89.908
-90.428
-90.625
-90.519
-90.073
-89.254
-88.073
-86.553
-84.737
-82.672
-80.374
-77.849
-75.12
-72.214
-69.174
-66.055
-62.89
-59.703
-56.508
-53.316
-50.135
-46.974
-43.833
-40.702
-37.574
-34.444
-31.312
-28.182
-25.056
-21.933
-18.81
-15.681
-12.548
-9.412
-6.279
-3.153
-0.037
3.06
6.129
9.157
12.135
15.053
17.901
20.672
23.355
25.941
28.419
30.781
33.017
35.117
37.069
38.862
40.488
41.934
43.194
44.256
45.112
45.756
46.178
46.374
46.337
46.063
45.547
44.785
43.776
42.519
41.012
39.257
37.255
35.01
32.525
29.806
26.859
23.692
20.312
16.729
12.955
8.999
4.874
0.593
-3.83
-8.381
-13.044
-17.805
-22.645
-27.549
-32.5
-37.479
-42.471
-47.458
-52.423
-57.348
-62.219
-67.017
-71.728
-76.337
-80.829
-85.189
-89.406
-93.466
-97.358
-101.072
-104.599
-107.93
-111.058
-113.977
-116.683
-119.172
-121.441
-123.489
-125.316
-126.923
-128.312
-129.485
-130.448
-131.205
-131.762
-132.127
-132.308
-132.314
-132.153
-131.836
-131.374
-130.777
-130.057
-129.226
-128.295
-127.276
-126.181
-125.023
-123.814
-122.564
-121.286
-119.99
-118.687
-117.385
-116.094
-114.822
-113.574
-112.358
-111.179
-110.042
-108.951
-107.908
-106.915
-105.974
-105.085
-104.247
-103.459
-102.716
-102.017
-101.357
-100.731
-100.135
-99.563
-99.007
-98.462
-97.922
-97.379
-96.827
-96.258
-95.665
-95.041
-94.38
-93.676
-92.924
-92.118
-91.257
-90.339
-89.364
-88.332
-87.244
-86.103
-84.909
-83.668
-82.383
-81.057
-79.693
-78.296
-76.874
-75.434
-73.986
-72.54
-71.105
-69.692
-68.314
-66.982
-65.707
-64.494
-63.35
-62.286
-61.315
-60.458
-59.727
-59.129
-58.671
-58.358
-58.191
-58.165
-58.264
-58.46
-58.725
-59.039
-59.391
-59.773
-60.17
-60.558
-60.906
-61.189
-61.398
-61.534
-61.592
-61.562
-61.454
-61.309
-61.199
-61.213
-61.413
-61.83
-62.491
-63.444
-64.749
-66.47
-68.667
-71.338
-74.485
-78.152
-82.314
-86.89
-91.705
-96.407
-100.637
-104.148
-106.638
-107.779
-107.492
-105.803
-102.951
-99.583
-96.17
-92.998
-90.622
-89.51
-89.58
-90.439
-91.129
-90.047
-86.077
-78.16
-64.477
-43.391
-14.014
22.873
64.423
107.607
150.732
194.917
241.864
289.6
332.734
361.456
365.297
339.896
285.866
209.674
122.28
34.898
-40.793
-96.278
-128.271
-139.53
-139.068
-135.073
-132.43
-131.981
-129.845
-124.05
-115.664
-106.636
-100.037
-97.291
-97.68
-100.195
-103.735
-107.178
-109.697
-110.82
-110.301
-108.272
-105.179
-101.432
-97.374
-93.396
-89.884
-87.054
-85.016
-83.743
-83.083
-82.91
-83.126
-83.618
-84.266
-84.97
-85.63
-86.142
-86.439
-86.468
-86.182
-85.562
-84.594
-83.265
-81.58
-79.561
-77.235
-74.632
-71.777
-68.687
-65.386
-61.908
-58.293
-54.592
-50.843
-47.069
-43.289
-39.516
-35.762
-32.032
-28.327
-24.635
-20.948
-17.263
-13.579
-9.9
-6.228
-2.562
1.102
4.765
8.425
12.078
15.721
19.349
22.957
26.537
30.079
33.569
36.996
40.35
43.621
46.799
49.871
52.828
55.659
58.354
60.903
63.294
65.516
67.558
69.409
71.059
72.498
73.717
74.708
75.464
75.977
76.243
76.257
76.017
75.521
74.766
73.753
72.484
70.961
69.186
67.165
64.904
62.409
59.69
56.757
53.62
50.291
46.784
43.111
39.289
35.331
31.254
27.074
22.808
18.472
14.085
9.664
5.227
0.792
-3.623
-8.002
-12.328
-16.584
-20.756
-24.83
-28.792
-32.628
-36.328
-39.879
-43.273
-46.5
-49.551
-52.421
-55.105
-57.597
-59.896
-62
-63.91
-65.626
-67.152
-68.49
-69.647
-70.627
-71.437
-72.085
-72.579
-72.93
-73.146
-73.239
-73.221
-73.103
-72.898
-72.618
-72.276
-71.885
-71.457
-71.005
-70.542
-70.079
-69.629
-69.205
-68.816
-68.474
-68.191
-67.974
-67.834
-67.777
-67.81
-67.939
-68.169
-68.502
-68.941
-69.486
-70.137
-70.893
-71.751
-72.71
-73.763
-74.906
-76.131
-77.433
-78.802
-80.23
-81.706
-83.222
-84.765
-86.326
-87.892
-89.454
-90.997
-92.511
-93.984
-95.403
-96.758
-98.037
-99.228
-100.321
-101.307
-102.177
-102.924
-103.542
-104.025
-104.37
-104.577
-104.646
-104.579
-104.379
-104.049
-103.594
-103.021
-102.338
-101.55
-100.665
-99.692
-98.642
-97.529
-96.365
-95.164
-93.941
-92.711
-91.489
-90.293
-89.136
-88.026
-86.976
-85.998
-85.11
-84.334
-83.687
-83.178
-82.817
-82.61
-82.56
-82.661
-82.898
-83.243
-83.672
-84.168
-84.72
-85.326
-85.973
-86.643
-87.308
-87.943
-88.54
-89.097
-89.607
-90.059
-90.461
-90.853
-91.304
-91.898
-92.689
-93.697
-94.935
-96.437
-98.245
-100.411
-102.98
-105.943
-109.293
-113.07
-117.256
-121.768
-126.417
-130.832
-134.63
-137.55
-139.319
-139.663
-138.542
-136.039
-132.49
-128.638
-125.073
-122.195
-120.506
-120.305
-121.366
-123.135
-124.496
-123.786
-119.764
-111.146
-96.233
-73.983
-44.017
-7.489
32.308
73.22
114.252
155.295
198.217
239.548
271.563
287.222
277.971
243.772
193.568
135.337
78.506
28.006
-18.446
-61.106
-99.182
-131.683
-155.769
-170.502
-177.142
-177.371
-173.096
-166.376
-159.298
-153.297
-149.235
-147.48
-147.656
-149.163
-151.591
-154.245
-156.16
-156.812
-155.967
-153.641
-150.282
-146.318
-142.03
-137.8
-134.031
-130.948
-128.686
-127.269
-126.562
-126.448
-126.834
-127.593
-128.614
-129.8
-131.055
-132.278
-133.369
-134.239
-134.824
-135.08
-134.985
-134.518
-133.664
-132.429
-130.841
-128.93
-126.727
-124.259
-121.542
-118.603
-115.481
-112.216
-108.861
-105.45
-102.004
-98.541
-95.073
-91.61
-88.156
-84.707
-81.251
-77.778
-74.285
-70.771
-67.238
-63.684
-60.106
-56.5
-52.864
-49.197
-45.501
-41.778
-38.03
-34.262
-30.479
-26.688
-22.901
-19.123
-15.36
-11.62
-7.907
-4.227
-0.587
3.008
6.552
10.04
13.464
16.818
20.095
23.289
26.392
29.4
32.306
35.106
37.794
40.368
42.823
45.156
47.364
49.445
51.399
53.224
54.921
56.491
57.935
59.256
60.456
61.54
62.511
63.375
64.135
64.799
65.371
65.86
66.272
66.615
66.897
67.128
67.316
67.471
67.603
67.723
67.839
67.963
68.104
68.272
68.477
68.728
69.035
69.407
69.853
70.38
70.996
71.709
72.525
73.45
74.489
75.647
76.928
78.336
79.873
81.542
83.344
85.281
87.353
89.558
91.895
94.361
96.953
99.667
102.498
105.439
108.486
111.631
114.866
118.185
121.579
125.038
128.555
132.119
135.721
139.351
143
146.657
150.313
153.958
157.583
161.178
164.734
168.242
171.694
175.08
178.393
181.626
184.771
187.822
190.773
193.621
196.363
198.995
201.516
203.926
206.223
208.41
210.488
212.46
214.328
216.098
217.773
219.359
220.863
222.292
223.653
224.952
226.199
227.4
228.565
229.701
230.815
231.916
233.011
234.109
235.217
236.342
237.491
238.67
239.885
241.139
242.437
243.778
245.162
246.588
248.053
249.555
251.091
252.655
254.242
255.848
257.471
259.104
260.74
262.369
263.98
265.565
267.114
268.617
270.062
271.438
272.738
273.958
275.094
276.139
277.08
277.902
278.588
279.134
279.534
279.784
279.885
279.842
279.67
279.398
279.052
278.651
278.208
277.73
277.229
276.73
276.266
275.865
275.543
275.308
275.17
275.145
275.219
275.362
275.511
275.595
275.576
275.426
275.112
274.586
273.78
272.623
271.073
269.093
266.609
263.612
260.153
256.374
252.619
249.258
246.575
244.891
244.525
245.575
247.968
251.365
254.913
257.818
259.573
259.618
257.541
253.407
247.666
241.442
236.855
235.959
240.32
251.828
272.244
302.44
342.796
391.658
444.643
498.862
552.398
603.946
654.665
700.468
732.921
744.638
727.508
682.163
618.345
545.246
473.295
408.329
349.426
297.577
253.989
219.722
197.347
187.08
186.994
194.699
207.226
221.415
234.641
245.227
252.261
255.636
255.981
254.151
251.04
247.86
245.81
245.515
247.217
250.757
255.59
261.209
267.181
272.993
278.186
282.515
285.866
288.271
289.891
290.859
291.291
291.323
291.069
290.628
290.091
289.552
289.117
288.875
288.891
289.209
289.851
290.834
292.173
293.861
295.869
298.169
300.732
303.54
306.585
309.844
313.285
316.871
320.557
324.317
328.137
332.011
335.936
339.917
343.959
348.074
352.284
356.6
361.025
365.56
370.195
374.927
379.756
384.675
389.68
394.756
399.87
404.987
410.064
415.045
419.872
424.475
428.768
432.674
436.119
439.026
441.323
442.922
443.731
443.659
442.62
440.549
437.396
433.107
427.622
420.892
412.877
403.575
393.011
381.179
368.139
354.027
339.046
323.522
307.789
292.094
276.655
261.676
247.119
232.778
218.352
203.276
187.075
169.509
150.388
129.677
107.73
85.031
62
39.27
17.209
-4.428
-26.138
-48.679
-73.367
-100.64
-129.533
-159.374
-188.904
-218.134
-250.275
-288.174
-335.105
-393.495
-461.214
-533.442
-600.388
-647.637
-663.432
-646.069
-613.734
-607.476
-680.727
-878.718
-1215.34
-1661.05
-2147.743
-2589.983
-2911.241
-3060.107
-3015.237
-2781.245
-2381.078
-1856.361
-1269.164
-693.518
-204.224
144.768
342.065
412.875
409.079
388.851
386.82
417.974
479.756
555.42
636.336
713.923
776.648
817.981
824.492
787.623
713.21
613.263
512.2
436.171
398.716
403.687
438.897
479.702
502.78
489.673
435.1
351.482
260.387
184.144
137.007
118.404
115.77
113.341
100.076
73.418
38.806
4.429
-24.474
-46.312
-62.337
-75.069
-85.708
-94.496
-101.657
-107.384
-112.247
-116.895
-121.65
-126.671
-132.049
-137.84
-144.069
-150.7
-157.676
-164.957
-172.544
-180.489
-188.792
-197.386
-206.197
-215.12
-224.048
-232.905
-241.603
-250.05
-258.172
-265.897
-273.16
-279.921
-286.128
-291.725
-296.655
-300.855
-304.3
-307.008
-309.016
-310.383
-311.177
-311.46
-311.303
-310.794
-310.009
-309.026
-307.923
-306.761
-305.602
-304.517
-303.573
-302.835
-302.343
-302.108
-302.115
-302.349
-302.788
-303.418
-304.219
-305.154
-306.185
-307.269
-308.368
-309.461
-310.532
-311.553
-312.502
-313.377
-314.206
-315.051
-315.994
-317.089
-318.365
-319.852
-321.587
-323.624
-326.019
-328.824
-332.041
-335.673
-339.767
-344.3
-349.171
-354.176
-358.921
-362.993
-366.1
-367.903
-368.031
-366.389
-363.023
-358.211
-352.747
-347.278
-342.193
-338.131
-335.59
-334.424
-334.234
-334.044
-331.888
-326.165
-315.649
-298.406
-272.761
-238.08
-194.18
-143.09
-89.341
-36.441
13.078
58.719
102.096
142.256
174.455
189.122
175.581
128.089
48.396
-51.292
-153.686
-242.389
-306.111
-343.174
-358.734
-362.091
-361.33
-359.787
-357.477
-351.431
-340.249
-325.602
-310.169
-297.13
-287.988
-282.335
-279.297
-277.824
-276.967
-275.965
-274.007
-270.631
-265.91
-260.139
-253.751
-247.15
-240.632
-234.551
-229.286
-225.029
-221.787
-219.457
-217.841
-216.776
-216.157
-215.837
-215.66
-215.487
-215.159
-214.583
-213.722
-212.535
-210.999
-209.102
-206.819
-204.154
-201.143
-197.812
-194.191
-190.308
-186.178
-181.829
-177.302
-172.641
-167.897
-163.106
-158.285
-153.45
-148.609
-143.766
-138.925
-134.079
-129.21
-124.308
-119.366
-114.38
-109.354
-104.285
-99.169
-94.004
-88.788
-83.522
-78.211
-72.862
-67.481
-62.077
-56.662
-51.251
-45.86
-40.507
-35.205
-29.969
-24.814
-19.756
-14.809
-9.99
-5.313
-0.792
3.555
7.714
11.668
15.403
18.906
22.162
25.16
27.888
30.337
32.496
34.361
35.922
37.177
38.12
38.749
39.063
39.064
38.753
38.134
37.213
35.996
34.493
32.714
30.672
28.377
25.847
23.094
20.138
16.993
13.68
10.217
6.623
2.919
-0.874
-4.736
-8.645
-12.581
-16.523
-20.451
-24.345
-28.186
-31.956
-35.638
-39.214
-42.669
-45.987
-49.156
-52.161
-54.993
-57.64
-60.093
-62.346
-64.392
-66.226
-67.847
-69.251
-70.44
-71.413
-72.173
-72.725
-73.074
-73.225
-73.186
-72.965
-72.573
-72.019
-71.315
-70.472
-69.501
-68.416
-67.228
-65.951
-64.597
-63.18
-61.713
-60.207
-58.675
-57.13
-55.583
-54.045
-52.527
-51.039
-49.591
-48.19
-46.845
-45.563
-44.35
-43.211
-42.152
-41.174
-40.281
-39.473
-38.75
-38.11
-37.552
-37.072
-36.667
-36.33
-36.057
-35.841
-35.674
-35.549
-35.458
-35.392
-35.342
-35.298
-35.251
-35.192
-35.111
-34.999
-34.848
-34.648
-34.392
-34.073
-33.684
-33.218
-32.669
-32.033
-31.305
-30.482
-29.562
-28.543
-27.424
-26.209
-24.9
-23.503
-22.023
-20.468
-18.844
-17.161
-15.43
-13.659
-11.856
-10.029
-8.19
-6.349
-4.52
-2.716
-0.95
0.766
2.419
3.995
5.483
6.874
8.165
9.352
10.427
11.379
12.192
12.853
13.357
13.695
13.866
13.87
13.715
13.417
13.006
12.51
11.949
11.34
10.691
10.018
9.347
8.705
8.124
7.63
7.239
6.978
6.863
6.88
7.004
7.184
7.351
7.47
7.505
7.4
7.113
6.587
5.749
4.576
3.005
0.919
-1.694
-4.782
-8.192
-11.549
-14.494
-16.78
-18.021
-17.813
-16.079
-12.91
-8.793
-4.764
-1.645
0.017
-0.495
-3.693
-9.385
-16.891
-24.696
-30.386
-31.733
-26.703
-12.962
11.631
47.044
91.193
141.437
193.893
248.137
307.779
372.045
437.654
495.439
527.692
523.349
477.679
394.249
290.877
185.113
92.771
25.127
-18.842
-44.344
-59.601
-72.401
-84.284
-93.894
-97.727
-93.436
-82.2
-66.706
-50.744
-36.817
-25.477
-16.798
-10.38
-5.8
-3.114
-2.37
-3.06
-4.77
-7.135
-9.521
-11.687
-13.629
-15.064
-15.67
-15.454
-14.45
-12.893
-11.359
-10.1
-9.148
-8.626
-8.595
-9.028
-9.883
-10.956
-11.887
-12.479
-12.656
-12.369
-11.642
-10.476
-8.86
-6.837
-4.486
-1.862
1
4.08
7.375
10.858
14.478
18.193
21.971
25.789
29.638
33.511
37.402
41.312
45.246
49.21
53.205
57.23
61.279
65.347
69.428
73.52
77.623
81.735
85.853
89.972
94.086
98.184
102.257
106.291
110.272
114.188
118.025
121.773
125.422
128.959
132.374
135.655
138.791
141.771
144.581
147.209
149.645
151.876
153.894
155.69
157.255
158.581
159.663
160.496
161.073
161.394
161.454
161.255
160.796
160.08
159.111
157.893
156.432
154.734
152.806
150.657
148.295
145.728
142.966
140.016
136.89
133.599
130.156
126.572
122.864
119.046
115.134
111.145
107.094
102.995
98.86
94.698
90.518
86.329
82.138
77.952
73.778
69.624
65.499
61.412
57.371
53.376
49.424
45.507
41.619
37.76
33.931
30.139
26.399
22.73
19.156
15.705
12.392
9.225
6.194
3.275
0.446
-2.315
-5.018
-7.658
-10.235
-12.752
-15.219
-17.649
-20.072
-22.534
-25.093
-27.82
-30.764
-33.943
-37.336
-40.889
-44.532
