Name,Waqar Muhammad
Date of Birth,"Jul 5, 1993"
Recorded Date,2025-01-05 21:40:05 -0500
Classification,Sinus Rhythm
Symptoms,
Software Version,1.90
Device,"Watch6,7"
Sample Rate,512 hertz


Lead,Lead I
Unit,µV

-45.961
-36.431
-25.888
-15.029
-4.248
5.834
14.294
20.663
24.79
26.726
26.908
25.786
23.665
20.923
18.001
15.176
12.653
10.598
9.003
7.846
7.134
6.823
6.866
7.241
7.903
8.771
9.775
10.826
11.827
12.733
13.51
14.106
14.488
14.626
14.514
14.203
13.734
13.108
12.33
11.411
10.37
9.271
8.139
6.921
5.568
4.002
2.168
0.095
-2.245
-4.946
-8.07
-11.657
-15.586
-19.512
-23.156
-26.402
-29.06
-30.901
-31.701
-31.222
-29.714
-27.942
-26.582
-26.099
-27.07
-30.191
-35.953
-44.728
-55.25
-64.472
-70.808
-73.426
-72.387
-69.549
-61.984
-44.096
-12.687
35.984
99.087
169.223
243.465
317.733
388.784
452.712
498.135
512.233
485.245
413.767
303.019
164.7
13.072
-137.698
-273.047
-380.768
-451.855
-483.167
-479.919
-451.192
-409.792
-366.614
-326.647
-293.028
-262.895
-231.41
-197.235
-159.156
-120.444
-87.204
-62.104
-46.596
-39.963
-39.009
-42.034
-47.822
-54.539
-60.927
-65.755
-68.061
-67.868
-65.578
-61.481
-56.101
-50.24
-44.705
-40.354
-37.614
-36.324
-36.232
-37.08
-38.583
-40.492
-42.449
-43.972
-44.797
-44.874
-44.221
-42.951
-41.136
-38.775
-35.955
-32.813
-29.481
-26.115
-22.793
-19.523
-16.332
-13.243
-10.289
-7.525
-4.966
-2.589
-0.384
1.661
3.557
5.298
6.911
8.452
9.977
11.552
13.224
15.017
16.957
19.068
21.369
23.877
26.595
29.512
32.625
35.934
39.439
43.143
47.04
51.113
55.347
59.725
64.23
68.844
73.549
78.322
83.143
87.993
92.853
97.706
102.528
107.296
111.985
116.568
121.018
125.308
129.41
133.296
136.939
140.314
143.397
146.164
148.594
150.666
152.362
153.666
154.56
155.033
155.073
154.671
153.819
152.515
150.755
148.541
145.876
142.764
139.215
135.239
130.849
126.058
120.885
115.349
109.47
103.271
96.778
90.017
83.015
75.803
68.409
60.866
53.204
45.456
37.654
29.83
22.015
14.241
6.54
-1.06
-8.529
-15.837
-22.959
-29.867
-36.538
-42.948
-49.075
-54.901
-60.408
-65.578
-70.4
-74.86
-78.949
-82.659
-85.985
-88.922
-91.469
-93.626
-95.396
-96.782
-97.791
-98.429
-98.707
-98.634
-98.224
-97.49
-96.446
-95.108
-93.494
-91.621
-89.507
-87.173
-84.637
-81.92
-79.042
-76.023
-72.885
-69.648
-66.333
-62.96
-59.549
-56.119
-52.689
-49.277
-45.9
-42.575
-39.317
-36.141
-33.06
-30.086
-27.232
-24.508
-21.923
-19.486
-17.204
-15.083
-13.126
-11.339
-9.721
-8.275
-7
-5.893
-4.952
-4.173
-3.55
-3.078
-2.751
-2.559
-2.493
-2.544
-2.701
-2.952
-3.284
-3.683
-4.137
-4.632
-5.152
-5.684
-6.214
-6.727
-7.208
-7.643
-8.017
-8.316
-8.525
-8.63
-8.618
-8.475
-8.191
-7.754
-7.157
-6.391
-5.45
-4.327
-3.018
-1.519
0.17
2.053
4.129
6.396
8.851
11.488
14.299
17.274
20.402
23.669
27.061
30.563
34.157
37.825
41.55
45.312
49.094
52.879
56.647
60.381
64.061
67.669
71.19
74.607
77.906
81.072
84.088
86.939
89.62
92.128
94.461
96.613
98.568
100.3
101.795
103.042
104.03
104.744
105.169
105.293
105.121
104.683
104.023
103.165
102.122
100.876
99.401
97.704
95.831
93.838
91.772
89.65
87.452
85.219
83.05
80.968
78.901
76.617
73.741
70.088
65.713
60.701
55.107
49.032
42.593
36.308
31.183
27.864
26.495
26.948
28.869
31.945
35.921
39.792
41.744
40.332
34.551
23.928
8.543
-11.822
-36.255
-61.766
-85.028
-102.396
-113.115
-120.432
-124.679
-124.416
-114.295
-83.367
-27.718
51.868
150.621
254.624
353.82
439.317
499.768
530.935
526.547
480.845
395.992
272.806
119.381
-46.783
-208.1
-342.421
-433.461
-480.432
-490.882
-479.206
-459.289
-434.209
-400.432
-355.621
-300.386
-241.07
-188.343
-146.991
-116.128
-93.613
-74.865
-58.678
-47.86
-43.239
-45.01
-51.985
-60.612
-68.452
-74.184
-77.07
-77.404
-75.623
-72.012
-67.103
-61.66
-56.498
-52.434
-49.86
-48.68
-48.687
-49.628
-51.226
-53.229
-55.255
-56.813
-57.614
-57.569
-56.68
-55.05
-52.748
-49.782
-46.244
-42.286
-38.058
-33.725
-29.375
-25.019
-20.684
-16.397
-12.197
-8.145
-4.265
-0.543
3.022
6.435
9.697
12.797
15.757
18.627
21.462
24.325
27.256
30.277
33.406
36.661
40.054
43.599
47.293
51.119
55.071
59.142
63.331
67.636
72.048
76.548
81.116
85.733
90.38
95.038
99.688
104.306
108.874
113.373
117.787
122.098
126.289
130.338
134.223
137.922
141.412
144.67
147.673
150.398
152.822
154.927
156.692
158.102
159.14
159.79
160.041
159.881
159.301
158.293
156.851
154.972
152.655
149.902
146.715
143.101
139.067
134.625
129.785
124.564
118.976
113.039
106.773
100.197
93.335
86.21
78.847
71.273
63.514
55.598
47.555
39.413
31.201
22.947
14.681
6.429
-1.782
-9.924
-17.972
-25.903
-33.692
-41.319
-48.762
-56.003
-63.024
-69.811
-76.35
-82.63
-88.639
-94.37
-99.817
-104.975
-109.84
-114.411
-118.688
-122.673
-126.37
-129.782
-132.917
-135.783
-138.387
-140.741
-142.854
-144.739
-146.408
-147.874
-149.152
-150.254
-151.195
-151.99
-152.653
-153.199
-153.642
-153.997
-154.276
-154.494
-154.663
-154.796
-154.904
-154.999
-155.091
-155.191
-155.308
-155.45
-155.626
-155.844
-156.109
-156.427
-156.805
-157.246
-157.754
-158.332
-158.984
-159.709
-160.511
-161.388
-162.342
-163.371
-164.474
-165.649
-166.894
-168.205
-169.581
-171.016
-172.508
-174.051
-175.64
-177.271
-178.938
-180.636
-182.357
-184.095
-185.842
-187.593
-189.338
-191.07
-192.782
-194.464
-196.108
-197.707
-199.252
-200.734
-202.145
-203.477
-204.721
-205.869
-206.914
-207.848
-208.664
-209.356
-209.918
-210.345
-210.635
-210.781
-210.783
-210.638
-210.344
-209.901
-209.311
-208.575
-207.694
-206.673
-205.517
-204.233
-202.831
-201.32
-199.711
-198.017
-196.249
-194.422
-192.55
-190.645
-188.718
-186.783
-184.852
-182.94
-181.064
-179.238
-177.474
-175.788
-174.193
-172.702
-171.326
-170.072
-168.941
-167.941
-167.075
-166.354
-165.793
-165.404
-165.194
-165.167
-165.325
-165.663
-166.173
-166.839
-167.628
-168.514
-169.47
-170.471
-171.504
-172.553
-173.592
-174.597
-175.529
-176.351
-177.041
-177.59
-177.996
-178.273
-178.45
-178.566
-178.689
-178.896
-179.265
-179.872
-180.784
-182.06
-183.745
-185.897
-188.605
-191.904
-195.766
-200.042
-204.437
-208.627
-212.34
-215.278
-217.09
-217.507
-216.391
-213.948
-210.847
-207.893
-205.769
-204.938
-205.826
-208.871
-214.284
-221.605
-228.697
-232.081
-228.629
-216.741
-198.096
-175.89
-151.812
-124.939
-89.16
-38.019
31.516
118.633
214.093
305.496
379.836
423.931
429.327
390.508
306.985
182.726
27.135
-142.631
-307.677
-446.836
-544.33
-597.577
-610.898
-595.834
-565.39
-525.485
-480.694
-435.725
-393.287
-357.374
-329.171
-304.122
-278.529
-250.647
-221.103
-194.478
-174.165
-160.422
-151.97
-146.347
-141.757
-137.695
-134.038
-130.575
-126.781
-122.382
-117.459
-112.13
-106.68
-101.359
-96.277
-91.797
-88.372
-86.076
-84.808
-84.385
-84.504
-84.96
-85.586
-86.049
-85.99
-85.209
-83.608
-81.192
-78.044
-74.204
-69.711
-64.662
-59.192
-53.448
-47.559
-41.624
-35.706
-29.853
-24.124
-18.582
-13.274
-8.218
-3.419
1.135
5.454
9.544
13.423
17.122
20.685
24.16
27.598
31.046
34.544
38.119
41.796
45.592
49.518
53.578
57.769
62.081
66.506
71.038
75.67
80.393
85.193
90.054
94.959
99.886
104.816
109.729
114.604
119.423
124.167
128.816
133.352
137.758
142.013
146.098
149.99
153.665
157.1
160.272
163.161
165.743
167.999
169.911
171.46
172.634
173.418
173.801
173.773
173.325
172.452
171.149
169.416
167.251
164.659
161.644
158.214
154.379
150.15
145.543
140.573
135.259
129.619
123.675
117.45
110.969
104.257
97.342
90.251
83.014
75.66
68.22
60.724
53.201
45.682
38.196
30.771
23.435
16.214
9.134
2.22
-4.506
-11.022
-17.309
-23.347
-29.122
-34.617
-39.821
-44.723
-49.314
-53.587
-57.538
-61.164
-64.464
-67.439
-70.09
-72.424
-74.446
-76.164
-77.586
-78.725
-79.592
-80.2
-80.563
-80.697
-80.616
-80.338
-79.878
-79.254
-78.484
-77.584
-76.573
-75.466
-74.282
-73.036
-71.745
-70.425
-69.091
-67.756
-66.435
-65.14
-63.883
-62.674
-61.524
-60.441
-59.434
-58.507
-57.668
-56.921
-56.269
-55.715
-55.261
-54.906
-54.65
-54.493
-54.43
-54.46
-54.578
-54.779
-55.058
-55.408
-55.823
-56.295
-56.817
-57.381
-57.976
-58.595
-59.227
-59.862
-60.49
-61.1
-61.682
-62.225
-62.719
-63.153
-63.517
-63.802
-63.996
-64.09
-64.074
-63.94
-63.676
-63.275
-62.727
-62.026
-61.162
-60.13
-58.924
-57.538
-55.967
-54.209
-52.258
-50.113
-47.771
-45.232
-42.496
-39.561
-36.432
-33.111
-29.603
-25.913
-22.048
-18.016
-13.825
-9.484
-5.004
-0.395
4.33
9.16
14.082
19.081
24.141
29.245
34.373
39.507
44.627
49.713
54.744
59.7
64.562
69.315
73.942
78.429
82.759
86.918
90.89
94.66
98.214
101.54
104.626
107.465
110.053
112.386
114.468
116.302
117.89
119.23
120.313
121.128
121.674
121.947
121.953
121.706
121.218
120.516
119.637
118.615
117.489
116.293
115.044
113.764
112.475
111.198
109.98
108.869
107.893
107.07
106.401
105.864
105.435
105.077
104.72
104.285
103.68
102.806
101.595
99.993
97.973
95.508
92.48
88.807
84.54
79.851
75.082
70.614
66.687
63.574
61.774
61.612
63.113
65.96
69.218
71.942
73.469
72.96
69.437
62.219
52.092
41.584
34.006
32.831
37.68
44.787
52.785
61.285
76.202
110.172
169.923
258.428
370.289
488.463
597.509
681.806
728.49
731.312
684.148
585.795
440.931
261.635
70.706
-106.126
-244.889
-331.258
-367.833
-367.579
-348.783
-327.43
-307.987
-287.891
-262.212
-226.547
-182.457
-135.017
-88.77
-47.389
-12.662
15.405
37.216
53.107
63.8
70.354
73.411
73.7
72.421
70.403
68.445
67.477
67.67
68.818
70.929
73.76
76.836
79.878
82.412
83.891
84.317
83.827
82.53
80.707
78.601
76.429
74.55
73.32
72.874
73.248
74.401
76.22
78.646
81.593
84.914
88.433
91.967
95.405
98.701
101.827
104.756
107.441
109.835
111.924
113.729
115.267
116.555
117.606
118.429
119.067
119.578
120.027
120.484
120.997
121.597
122.316
123.178
124.204
125.411
126.803
128.373
130.118
132.04
134.141
136.424
138.881
141.498
144.264
147.162
150.178
153.297
156.5
159.768
163.085
166.432
169.793
173.149
176.48
179.764
182.976
186.09
189.081
191.921
194.585
197.045
199.275
201.25
202.946
204.343
205.418
206.153
206.529
206.531
206.145
205.358
204.16
202.543
200.502
198.032
195.134
191.807
188.057
183.889
179.313
174.34
168.984
163.259
157.185
150.782
144.07
137.074
129.82
122.333
114.643
106.778
98.77
90.648
82.445
74.19
65.915
57.651
49.426
41.27
33.211
25.275
17.488
9.874
2.456
-4.745
-11.708
-18.417
-24.854
-31.006
-36.86
-42.407
-47.636
-52.544
-57.124
-61.375
-65.297
-68.891
-72.16
-75.11
-77.748
-80.083
-82.124
-83.885
-85.378
-86.616
-87.616
-88.393
-88.964
-89.344
-89.552
-89.603
-89.516
-89.307
-88.993
-88.59
-88.113
-87.579
-87.002
-86.396
-85.776
-85.154
-84.541
-83.949
-83.389
-82.87
-82.399
-81.986
-81.635
-81.354
-81.146
-81.016
-80.966
-80.996
-81.109
-81.304
-81.579
-81.932
-82.361
-82.864
-83.436
-84.074
-84.774
-85.531
-86.342
-87.202
-88.106
-89.05
-90.03
-91.041
-92.079
-93.139
-94.219
-95.314
-96.421
-97.536
-98.655
-99.776
-100.894
-102.008
-103.112
-104.204
-105.282
-106.343
-107.385
-108.405
-109.401
-110.372
-111.317
-112.234
-113.12
-113.976
-114.798
-115.585
-116.334
-117.043
-117.711
-118.335
-118.912
-119.439
-119.914
-120.333
-120.693
-120.99
-121.22
-121.38
-121.465
-121.471
-121.396
-121.236
-120.988
-120.651
-120.222
-119.7
-119.085
-118.376
-117.573
-116.675
-115.685
-114.604
-113.433
-112.176
-110.836
-109.419
-107.933
-106.386
-104.785
-103.14
-101.461
-99.759
-98.044
-96.326
-94.613
-92.915
-91.244
-89.612
-88.032
-86.516
-85.075
-83.722
-82.47
-81.328
-80.305
-79.406
-78.633
-77.987
-77.475
-77.102
-76.882
-76.823
-76.928
-77.202
-77.643
-78.248
-79.01
-79.91
-80.92
-82.018
-83.184
-84.399
-85.653
-86.927
-88.2
-89.449
-90.646
-91.765
-92.782
-93.681
-94.456
-95.123
-95.707
-96.245
-96.788
-97.385
-98.092
-98.976
-100.102
-101.531
-103.296
-105.432
-107.997
-111.013
-114.473
-118.266
-122.12
-125.745
-128.905
-131.331
-132.73
-132.896
-131.667
-129.169
-125.992
-122.743
-119.907
-118.087
-117.871
-119.707
-124.136
-130.424
-135.925
-138.114
-134.555
-124.653
-111.931
-99.04
-86.224
-71.268
-45.113
1.375
72.145
167.69
278.97
390.499
486.864
551.602
571.756
541.419
460.677
335.143
178.032
7.666
-157.606
-297.078
-395.894
-451.784
-468.942
-461.052
-444.11
-424.362
-403.258
-377.797
-342.67
-298.894
-250.832
-202.629
-158.907
-121.969
-91.914
-68.74
-51.748
-39.633
-31.22
-25.64
-21.92
-18.968
-15.834
-11.572
-5.779
1.213
8.915
16.966
24.96
32.443
38.895
43.654
46.443
47.465
47.067
45.654
43.581
41.105
38.571
36.445
35.042
34.501
34.859
36.04
37.984
40.68
44.072
48.052
52.493
57.252
62.184
67.179
72.15
77.021
81.724
86.187
90.356
94.207
97.738
100.968
103.91
106.576
108.982
111.161
113.162
115.041
116.861
118.681
120.545
122.49
124.545
126.736
129.079
131.581
134.239
137.044
139.99
143.074
146.293
149.641
153.106
156.673
160.327
164.051
167.828
171.64
175.469
179.299
183.112
186.893
190.624
194.29
197.873
201.352
204.705
207.91
210.942
213.779
216.398
218.776
220.89
222.721
224.249
225.457
226.33
226.851
227.009
226.793
226.191
225.199
223.81
222.02
219.83
217.241
214.255
210.878
207.119
202.986
198.493
193.651
188.476
182.986
177.199
171.136
164.819
158.272
151.519
144.588
137.504
130.296
122.992
115.62
108.211
100.791
93.389
86.033
78.748
71.562
64.498
57.58
50.831
44.271
37.919
31.793
25.909
20.28
14.918
9.835
5.038
0.534
-3.671
-7.574
-11.174
-14.47
-17.465
-20.162
-22.565
-24.682
-26.521
-28.091
-29.402
-30.466
-31.295
-31.904
-32.306
-32.516
-32.548
-32.42
-32.145
-31.74
-31.221
-30.602
-29.899
-29.126
-28.297
-27.426
-26.524
-25.604
-24.676
-23.751
-22.839
-21.948
-21.086
-20.261
-19.478
-18.745
-18.065
-17.443
-16.881
-16.384
-15.951
-15.586
-15.288
-15.059
-14.898
-14.804
-14.777
-14.816
-14.918
-15.083
-15.307
-15.589
-15.925
-16.315
-16.754
-17.242
-17.775
-18.353
-18.972
-19.631
-20.329
-21.063
-21.832
-22.633
-23.464
-24.324
-25.21
-26.121
-27.055
-28.009
-28.982
-29.971
-30.975
-31.989
-33.012
-34.039
-35.066
-36.09
-37.105
-38.107
-39.092
-40.055
-40.99
-41.894
-42.761
-43.585
-44.361
-45.084
-45.746
-46.343
-46.869
-47.318
-47.684
-47.964
-48.153
-48.248
-48.247
-48.146
-47.944
-47.639
-47.231
-46.718
-46.101
-45.381
-44.559
-43.639
-42.626
-41.525
-40.346
-39.097
-37.788
-36.43
-35.034
-33.612
-32.174
-30.729
-29.286
-27.856
-26.449
-25.076
-23.749
-22.482
-21.284
-20.17
-19.149
-18.228
-17.415
-16.713
-16.122
-15.642
-15.277
-15.03
-14.917
-14.952
-15.14
-15.488
-15.995
-16.653
-17.452
-18.373
-19.385
-20.459
-21.565
-22.674
-23.775
-24.853
-25.89
-26.869
-27.752
-28.495
-29.078
-29.49
-29.737
-29.846
-29.841
-29.758
-29.655
-29.608
-29.711
-30.053
-30.688
-31.655
-32.963
-34.651
-36.865
-39.675
-42.997
-46.656
-50.321
-53.665
-56.533
-58.636
-59.428
-58.616
-56.261
-52.644
-48.577
-44.963
-42.313
-41.401
-43.467
-48.225
-53.88
-59.037
-61.349
-60.941
-61.436
-62.368
-60.398
-49.31
-19.558
32.105
102.584
186.003
274.782
363.294
445.28
511.782
550.624
549.473
504.398
418.803
301.778
167.333
26.59
-109.705
-227.498
-315.959
-369.01
-387.078
-380.889
-363.547
-342.383
-320.002
-293.965
-260.193
-219.464
-175.423
-131.916
-93.006
-60.861
-35.854
-17.997
-6.67
-0.684
1.176
-0.154
-3.584
-7.798
-11.67
-14.18
-14.839
-13.872
-11.651
-8.43
-4.604
-0.67
2.847
5.312
6.49
6.575
5.783
4.343
2.481
0.372
-1.692
-3.29
-4.19
-4.341
-3.752
-2.524
-0.719
1.643
4.465
7.585
10.843
14.102
17.3
20.432
23.49
26.45
29.28
31.941
34.427
36.755
38.931
40.961
42.845
44.592
46.237
47.842
49.471
51.177
52.991
54.933
57.019
59.265
61.683
64.279
67.044
69.969
73.05
76.286
79.68
83.225
86.91
90.715
94.622
98.613
102.67
106.774
110.905
115.041
119.164
123.256
127.3
131.279
135.169
138.95
142.596
146.084
149.392
152.494
155.366
157.985
160.329
162.378
164.114
165.519
166.577
167.273
167.595
167.533
167.077
166.221
164.96
163.29
161.212
158.727
155.84
152.557
148.887
144.84
140.43
135.672
130.581
125.176
119.477
113.504
107.28
100.83
94.177
87.349
80.371
73.273
66.082
58.826
51.534
44.232
36.949
29.711
22.543
15.47
8.516
1.703
-4.948
-11.417
-17.686
-23.739
-29.56
-35.137
-40.458
-45.514
-50.296
-54.799
-59.019
-62.952
-66.598
-69.957
-73.032
-75.825
-78.342
-80.589
-82.573
-84.304
-85.792
-87.047
-88.083
-88.91
-89.543
-89.995
-90.28
-90.411
-90.404
-90.272
-90.028
-89.686
-89.259
-88.76
-88.2
-87.592
-86.945
-86.271
-85.579
-84.877
-84.173
-83.474
-82.788
-82.119
-81.474
-80.856
-80.27
-79.719
-79.206
-78.732
-78.299
-77.908
-77.557
-77.248
-76.978
-76.747
-76.553
-76.393
-76.267
-76.171
-76.104
-76.063
-76.047
-76.053
-76.08
-76.126
-76.188
-76.266
-76.359
-76.465
-76.584
-76.714
-76.856
-77.009
-77.172
-77.344
-77.525
-77.712
-77.906
-78.105
-78.307
-78.512
-78.719
-78.925
-79.13
-79.334
-79.536
-79.733
-79.924
-80.107
-80.281
-80.442
-80.589
-80.718
-80.825
-80.908
-80.963
-80.988
-80.977
-80.927
-80.834
-80.693
-80.499
-80.25
-79.939
-79.563
-79.118
-78.601
-78.012
-77.348
-76.609
-75.795
-74.907
-73.945
-72.911
-71.808
-70.636
-69.397
-68.095
-66.733
-65.318
-63.854
-62.349
-60.81
-59.248
-57.674
-56.099
-54.531
-52.982
-51.459
-49.974
-48.535
-47.149
-45.824
-44.567
-43.387
-42.296
-41.302
-40.41
-39.626
-38.951
-38.388
-37.94
-37.604
-37.373
-37.244
-37.219
-37.306
-37.525
-37.883
-38.384
-39.03
-39.817
-40.743
-41.804
-42.976
-44.22
-45.498
-46.773
-48.033
-49.278
-50.493
-51.649
-52.703
-53.606
-54.341
-54.908
-55.291
-55.466
-55.408
-55.115
-54.659
-54.163
-53.744
-53.51
-53.505
-53.761
-54.376
-55.416
-56.901
-58.759
-60.723
-62.486
-63.861
-64.67
-64.718
-63.895
-62.11
-59.546
-56.858
-54.864
-54.321
-55.816
-59.824
-66.705
-76.538
-88.696
-101.022
-110.151
-112.912
-107.374
-94.437
-76.478
-54.765
-28.501
7.328
57.819
124.74
206.039
292.706
373.935
439.101
478.476
485.621
454.304
381.822
268.279
119.967
-45.756
-207.969
-342.053
-429.122
-467.002
-463.369
-435.276
-400.793
-366.759
-334.054
-299.229
-257.372
-209.897
-160.885
-114.605
-75.921
-46.77
-26.8
-15.167
-10.084
-9.59
-12.474
-17.437
-22.816
-27.29
-29.782
-29.769
-27.562
-23.736
-18.697
-12.953
-7.164
-1.953
1.988
4.363
5.404
5.386
4.581
3.266
1.649
0.045
-1.097
-1.526
-1.185
-0.074
1.704
4.08
7.058
10.549
14.409
18.498
22.652
26.783
30.876
34.902
38.829
42.624
46.226
49.612
52.798
55.784
58.576
61.178
63.58
65.807
67.911
69.948
71.982
74.059
76.202
78.434
80.779
83.251
85.868
88.631
91.532
94.565
97.733
101.038
104.483
108.065
111.77
115.584
119.493
123.482
127.537
131.643
135.781
139.935
144.092
148.237
152.357
156.436
160.455
164.393
168.231
171.945
175.513
178.913
182.118
185.108
187.858
190.349
192.56
194.472
196.066
197.324
198.232
198.774
198.938
198.712
198.087
197.056
195.614
193.758
191.489
188.807
185.718
182.228
178.347
174.085
169.454
164.469
159.146
153.502
147.557
141.334
134.854
128.141
121.223
114.124
106.873
99.499
92.028
84.491
76.914
69.328
61.759
54.236
46.785
39.433
32.205
25.125
18.217
11.502
4.999
-1.273
-7.299
-13.063
-18.554
-23.761
-28.675
-33.29
-37.6
-41.602
-45.295
-48.679
-51.754
-54.526
-56.999
-59.179
-61.075
-62.695
-64.05
-65.15
-66.009
-66.638
-67.051
-67.263
-67.288
-67.14
-66.836
-66.391
-65.819
-65.137
-64.359
-63.5
-62.574
-61.595
-60.575
-59.526
-58.46
-57.387
-56.317
-55.259
-54.221
-53.21
-52.232
-51.293
-50.399
-49.553
-48.759
-48.02
-47.338
-46.717
-46.158
-45.662
-45.229
-44.862
-44.559
-44.321
-44.148
-44.038
-43.992
-44.009
-44.086
-44.223
-44.418
-44.67
-44.976
-45.334
-45.744
-46.201
-46.706
-47.255
-47.846
-48.479
-49.15
-49.858
-50.601
-51.377
-52.184
-53.018
-53.877
-54.758
-55.655
-56.565
-57.484
-58.405
-59.324
-60.235
-61.132
-62.008
-62.858
-63.673
-64.447
-65.173
-65.844
-66.452
-66.991
-67.453
-67.833
-68.124
-68.322
-68.421
-68.419
-68.31
-68.093
-67.763
-67.32
-66.76
-66.085
-65.293
-64.385
-63.362
-62.23
-60.993
-59.658
-58.235
-56.73
-55.154
-53.519
-51.836
-50.117
-48.372
-46.611
-44.845
-43.086
-41.347
-39.644
-37.987
-36.392
-34.872
-33.439
-32.103
-30.873
-29.755
-28.75
-27.861
-27.092
-26.449
-25.947
-25.599
-25.41
-25.388
-25.533
-25.837
-26.295
-26.888
-27.586
-28.365
-29.196
-30.055
-30.932
-31.813
-32.683
-33.529
-34.314
-35.001
-35.571
-36.012
-36.325
-36.532
-36.651
-36.718
-36.797
-36.955
-37.275
-37.835
-38.696
-39.908
-41.488
-43.461
-45.907
-48.871
-52.317
-56.105
-59.919
-63.419
-66.374
-68.499
-69.431
-68.915
-66.823
-63.37
-59.351
-55.616
-52.808
-51.671
-52.892
-56.873
-63.872
-72.6
-79.866
-82.706
-78.421
-67.328
-52.954
-36.869
-19.247
4.945
45.373
107.331
192.306
293.93
396.951
485.724
545.12
563.539
536.559
465.54
356.286
218.736
66.2
-87.089
-225.379
-334.102
-405.686
-440.777
-447.422
-436.791
-415.941
-385.12
-342.531
-288.846
-230.259
-177.362
-137.511
-111.602
-94.578
-79.546
-62.94
-45.366
-30.555
-21.203
-17.609
-18.255
-20.054
-20.983
-20.275
-17.746
-13.964
-9.388
-4.113
1.553
7.095
12.009
15.693
17.896
18.845
18.803
18.016
16.741
15.176
13.607
12.466
12.018
12.337
13.428
15.197
17.572
20.557
24.078
27.996
32.167
36.425
40.656
44.828
48.908
52.859
56.646
60.21
63.521
66.594
69.441
72.076
74.507
76.735
78.782
80.702
82.556
84.41
86.316
88.302
90.393
92.612
94.978
97.508
100.207
103.065
106.077
109.241
112.557
116.029
119.651
123.408
127.284
131.264
135.331
139.471
143.666
147.897
152.146
156.397
160.632
164.838
168.995
173.083
177.078
180.958
184.698
188.275
191.665
194.843
197.784
200.466
202.869
204.972
206.756
208.203
209.297
210.024
210.37
210.325
209.878
209.022
207.752
206.065
203.96
201.439
198.503
195.16
191.416
187.282
182.77
177.894
172.669
167.112
161.244
155.085
148.658
141.987
135.097
128.015
120.769
113.386
105.896
98.327
90.708
83.066
75.431
67.83
60.291
52.839
45.5
38.299
31.258
24.399
17.743
11.309
5.114
-0.827
-6.5
-11.892
-16.993
-21.794
-26.289
-30.474
-34.344
-37.899
-41.139
-44.067
-46.687
-49.003
-51.025
-52.76
-54.218
-55.41
-56.348
-57.046
-57.517
-57.776
-57.838
-57.719
-57.434
-56.999
-56.43
-55.743
-54.955
-54.08
-53.133
-52.13
-51.083
-50.008
-48.916
-47.819
-46.73
-45.658
-44.614
-43.606
-42.643
-41.732
-40.879
-40.089
-39.367
-38.716
-38.139
-37.638
-37.215
-36.87
-36.604
-36.416
-36.306
-36.271
-36.31
-36.421
-36.601
-36.849
-37.16
-37.531
-37.961
-38.446
-38.982
-39.567
-40.198
-40.871
-41.584
-42.334
-43.116
-43.928
-44.766
-45.628
-46.51
-47.409
-48.323
-49.248
-50.183
-51.123
-52.066
-53.009
-53.947
-54.878
-55.796
-56.698
-57.581
-58.438
-59.267
-60.064
-60.823
-61.541
-62.212
-62.831
-63.395
-63.896
-64.332
-64.695
-64.981
-65.185
-65.304
-65.334
-65.272
-65.115
-64.862
-64.511
-64.061
-63.511
-62.86
-62.111
-61.262
-60.316
-59.276
-58.147
-56.937
-55.651
-54.301
-52.894
-51.441
-49.954
-48.442
-46.917
-45.386
-43.858
-42.342
-40.848
-39.387
-37.97
-36.609
-35.316
-34.101
-32.972
-31.938
-31.006
-30.178
-29.454
-28.836
-28.325
-27.93
-27.669
-27.556
-27.598
-27.799
-28.157
-28.672
-29.337
-30.137
-31.048
-32.039
-33.08
-34.15
-35.239
-36.338
-37.433
-38.496
-39.48
-40.351
-41.095
-41.717
-42.225
-42.628
-42.93
-43.148
-43.349
-43.624
-44.063
-44.76
-45.773
-47.115
-48.832
-51.037
-53.808
-57.143
-60.875
-64.621
-68.024
-70.878
-72.964
-73.976
-73.662
-71.901
-69.018
-65.985
-63.779
-63.047
-64.421
-68.511
-75.693
-86.106
-98.186
-108.469
-113.943
-112.648
-105.304
-94.427
-79.828
-58.592
-25.231
25.81
94.483
176.381
264.391
349.692
425.052
482.591
513.338
509.195
464.195
378.411
256.232
107.139
-53.843
-211.261
-345.827
-441.632
-494.366
-505.627
-487.801
-456.128
-417.042
-376.289
-334.065
-287.871
-241.554
-196.165
-153.474
-116.992
-86.339
-62.957
-47.651
-39.118
-36.704
-38.096
-40.872
-43.347
-43.795
-41.709
-37.306
-30.886
-23.131
-14.773
-6.403
1.09
6.813
10.432
11.951
11.676
10.155
7.797
4.911
1.9
-0.803
-2.877
-4.116
-4.474
-4.025
-2.82
-0.891
1.72
4.95
8.68
12.781
17.115
21.545
25.984
30.367
34.633
38.73
42.598
46.195
49.512
52.567
55.369
57.927
60.248
62.342
64.254
66.042
67.769
69.502
71.286
73.152
75.131
77.249
79.524
81.968
84.578
87.344
90.26
93.328
96.547
99.917
103.427
107.063
110.81
114.652
118.574
122.559
126.589
130.645
134.712
138.774
142.814
146.818
150.767
154.641
158.419
162.077
165.594
168.945
172.108
175.06
177.778
180.242
182.431
184.328
185.916
187.178
188.099
188.668
188.872
188.701
188.148
187.206
185.871
184.142
182.019
179.503
176.598
173.312
169.653
165.632
161.261
156.553
151.526
146.196
140.583
134.708
128.593
122.26
115.736
109.044
102.211
95.264
88.23
81.134
74.004
66.865
59.745
52.667
45.656
38.736
31.93
25.259
18.744
12.404
6.257
0.32
-5.392
-10.865
-16.089
-21.053
-25.747
-30.166
-34.304
-38.157
-41.724
-45.003
-47.997
-50.707
-53.138
-55.295
-57.185
-58.816
-60.197
-61.34
-62.254
-62.952
-63.446
-63.75
-63.877
-63.84
-63.655
-63.334
-62.893
-62.345
-61.705
-60.986
-60.201
-59.365
-58.489
-57.585
-56.666
-55.742
-54.824
-53.921
-53.042
-52.196
-51.391
-50.634
-49.93
-49.287
-48.708
-48.199
-47.762
-47.4
-47.114
-46.908
-46.78
-46.731
-46.76
-46.867
-47.049
-47.306
-47.636
-48.034
-48.5
-49.029
-49.619
-50.265
-50.963
-51.71
-52.501
-53.333
-54.2
-55.098
-56.023
-56.969
-57.933
-58.91
-59.894
-60.88
-61.863
-62.837
-63.797
-64.736
-65.65
-66.531
-67.376
-68.177
-68.931
-69.632
-70.274
-70.853
-71.363
-71.801
-72.161
-72.438
-72.629
-72.73
-72.735
-72.644
-72.452
-72.159
-71.762
-71.261
-70.654
-69.942
-69.125
-68.204
-67.181
-66.057
-64.835
-63.519
-62.114
-60.626
-59.063
-57.435
-55.752
-54.023
-52.262
-50.479
-48.686
-46.895
-45.113
-43.35
-41.615
-39.918
-38.269
-36.68
-35.162
-33.726
-32.381
-31.137
-29.999
-28.974
-28.065
-27.269
-26.587
-26.019
-25.573
-25.268
-25.116
-25.125
-25.297
-25.632
-26.123
-26.764
-27.536
-28.411
-29.357
-30.342
-31.346
-32.362
-33.383
-34.398
-35.379
-36.281
-37.068
-37.728
-38.265
-38.686
-39.006
-39.236
-39.404
-39.589
-39.883
-40.373
-41.149
-42.261
-43.72
-45.562
-47.878
-50.747
-54.18
-58.028
-61.942
-65.558
-68.618
-70.875
-72.009
-71.717
-69.824
-66.595
-62.911
-59.791
-58.027
-58.325
-61.365
-67.639
-77.351
-89.122
-99.727
-106.018
-105.822
-99.597
-89.491
-75.422
-54.609
-21.666
28.571
96.186
177.01
264.28
350.254
428.127
489.721
525.368
525.151
481.509
394.015
267.136
111.328
-56.798
-220.049
-358.61
-456.666
-510.007
-522.432
-505.302
-470.7
-424.81
-370.913
-312.342
-254.929
-205.068
-166.759
-138.976
-115.82
-93.453
-70.836
-49.633
-34.341
-26.373
-24.709
-27.45
-31.084
-33.415
-33.669
-31.431
-27.116
-21.321
-14.318
-6.589
1.113
8.073
13.565
17.22
19.195
19.829
19.451
18.389
16.942
15.445
14.342
13.922
14.267
15.373
17.15
19.517
22.456
25.917
29.775
33.913
38.194
42.479
46.709
50.838
54.81
58.587
62.109
65.332
68.255
70.893
73.261
75.375
77.24
78.868
80.303
81.6
82.82
84.029
85.271
86.578
87.985
89.519
91.201
93.051
95.071
97.254
99.601
102.115
104.799
107.656
110.68
113.859
117.181
120.633
124.202
127.873
131.63
135.454
139.33
143.241
147.172
151.107
155.027
158.908
162.73
166.466
170.093
173.584
176.915
180.058
182.988
185.682
188.117
190.269
192.119
193.647
194.833
195.662
196.119
196.189
195.863
195.131
193.986
192.425
190.445
188.048
185.235
182.014
178.392
174.379
169.988
165.234
160.133
154.704
148.968
142.948
136.668
130.153
123.43
116.527
109.472
102.296
95.028
87.698
80.336
72.971
65.632
58.348
51.148
44.057
37.102
30.307
23.696
17.289
11.108
5.169
-0.511
-5.918
-11.039
-15.865
-20.387
-24.599
-28.497
-32.079
-35.346
-38.3
-40.943
-43.283
-45.325
-47.078
-48.553
-49.76
-50.713
-51.425
-51.909
-52.182
-52.26
-52.159
-51.895
-51.487
-50.952
-50.306
-49.568
-48.753
-47.878
-46.959
-46.012
-45.051
-44.089
-43.141
-42.217
-41.329
-40.487
-39.7
-38.976
-38.321
-37.742
-37.244
-36.829
-36.502
-36.265
-36.12
-36.067
-36.106
-36.238
-36.46
-36.771
-37.169
-37.651
-38.213
-38.852
-39.563
-40.342
-41.183
-42.083
-43.034
-44.032
-45.071
-46.146
-47.251
-48.38
-49.527
-50.688
-51.856
-53.027
-54.196
-55.357
-56.505
-57.635
-58.743
-59.822
-60.869
-61.878
-62.845
-63.764
-64.631
-65.441
-66.188
-66.867
-67.474
-68.005
-68.453
-68.816
-69.09
-69.271
-69.357
-69.345
-69.234
-69.021
-68.708
-68.292
-67.774
-67.156
-66.439
-65.624
-64.714
-63.713
-62.625
-61.458
-60.218
-58.912
-57.55
-56.14
-54.693
-53.218
-51.726
-50.223
-48.72
-47.225
-45.75
-44.306
-42.905
-41.557
-40.274
-39.068
-37.949
-36.926
-36.004
-35.185
-34.47
-33.864
-33.371
-33.001
-32.765
-32.666
-32.71
-32.902
-33.235
-33.702
-34.289
-34.966
-35.712
-36.507
-37.33
-38.171
-39.019
-39.857
-40.67
-41.439
-42.134
-42.743
-43.253
-43.656
-43.973
-44.24
-44.506
-44.849
-45.335
-46.01
-46.943
-48.191
-49.803
-51.833
-54.289
-57.179
-60.583
-64.549
-69.037
-73.908
-78.846
-83.477
-87.511
-90.598
-92.275
-92.198
-90.204
-86.525
-81.904
-77.139
-73.059
-70.63
-70.885
-74.869
-82.169
-90.368
-96.668
-98.033
-95.014
-92.177
-91.149
-91.359
-85.179
-57.692
-0.157
90.825
207.926
331.813
444.922
529.754
575.188
578.495
536.908
453.458
331.461
175.625
0.153
-178.997
-340.094
-461.009
-533.563
-558.735
-549.468
-525.524
-496.979
-467.082
-433.21
-388.642
-333.643
-273.151
-212.562
-158.268
-113.468
-78.5
-53.486
-37.52
-28.926
-26.052
-27.238
-30.61
-34.552
-37.73
-38.803
-37.206
-33.209
-27.312
-20.111
-12.347
-4.673
2.219
7.491
10.834
12.437
12.592
11.713
10.186
8.296
6.449
5.148
4.667
5.091
6.414
8.512
11.304
14.76
18.776
23.205
27.902
32.711
37.511
42.247
46.867
51.31
55.52
59.44
63.043
66.336
69.338
72.062
74.523
76.737
78.732
80.562
82.281
83.953
85.636
87.376
89.206
91.161
93.263
95.532
97.978
100.599
103.386
106.336
109.448
112.718
116.141
119.707
123.4
127.206
131.107
135.085
139.122
143.198
147.295
151.395
155.48
159.531
163.532
167.463
171.303
175.029
178.616
182.04
185.279
188.306
191.1
193.636
195.895
197.855
199.499
200.81
201.772
202.37
202.593
202.43
201.871
200.911
199.544
197.77
195.588
193
190.012
186.63
182.864
178.725
174.227
169.384
164.213
158.733
152.964
146.929
140.65
134.151
127.46
120.601
113.602
106.49
99.295
92.043
84.762
77.479
70.223
63.018
55.891
48.867
41.969
35.22
28.641
22.253
16.072
10.117
4.402
-1.061
-6.258
-11.182
-15.824
-20.177
-24.239
-28.007
-31.479
-34.657
-37.545
-40.145
-42.464
-44.509
-46.289
-47.812
-49.09
-50.134
-50.957
-51.57
-51.99
-52.229
-52.302
-52.226
-52.014
-51.683
-51.249
-50.725
-50.128
-49.473
-48.772
-48.041
-47.293
-46.54
-45.793
-45.065
-44.366
-43.705
-43.091
-42.532
-42.035
-41.607
-41.251
-40.974
-40.778
-40.668
-40.645
-40.711
-40.867
-41.114
-41.452
-41.881
-42.398
-43.002
-43.69
-44.459
-45.306
-46.226
-47.215
-48.269
-49.382
-50.549
-51.765
-53.023
-54.318
-55.642
-56.988
-58.35
-59.72
-61.091
-62.455
-63.806
-65.135
-66.437
-67.702
-68.926
-70.1
-71.216
-72.268
-73.249
-74.151
-74.967
-75.691
-76.316
-76.836
-77.247
-77.544
-77.723
-77.78
-77.714
-77.521
-77.199
-76.749
-76.171
-75.464
-74.631
-73.675
-72.599
-71.409
-70.115
-68.723
-67.243
-65.685
-64.06
-62.379
-60.653
-58.893
-57.107
-55.306
-53.501
-51.704
-49.926
-48.182
-46.484
-44.847
-43.284
-41.805
-40.422
-39.142
-37.968
-36.906
-35.96
-35.135
-34.448
-33.912
-33.534
-33.324
-33.285
-33.412
-33.698
-34.126
-34.668
-35.301
-35.998
-36.735
-37.5
-38.28
-39.063
-39.842
-40.589
-41.274
-41.881
-42.398
-42.824
-43.195
-43.539
-43.904
-44.368
-44.984
-45.823
-46.975
-48.495
-50.432
-52.815
-55.62
-58.885
-62.741
-67.203
-72.18
-77.479
-82.71
-87.542
-91.782
-95.068
-96.875
-96.907
-95.178
-92.041
-88.34
-84.988
-82.626
-82.034
-84.353
-89.4
-95.412
-100.723
-102.879
-101.977
-101.734
-102.397
-101.323
-91.925
-63.449
-11.862
59.89
144.528
231.117
313.013
386.376
445.546
483.709
489.877
453.527
371.219
244.683
85.843
-85.09
-247.917
-380.881
-470.704
-517.877
-528.522
-514.745
-487.561
-450.503
-406.824
-361.211
-317.939
-281.572
-252.738
-225.865
-195.783
-161.079
-123.95
-90.216
-64.488
-47.583
-38.066
-33.654
-32.717
-34.23
-37.396
-41.237
-44.402
-46.155
-46.333
-44.772
-41.615
-37.274
-32.144
-26.902
-22.295
-18.578
-15.781
-13.865
-12.624
-11.831
-11.229
-10.435
-9.073
-6.982
-4.137
-0.59
3.551
8.19
13.217
18.464
23.736
28.893
33.874
38.653
43.231
47.588
51.674
55.463
58.96
62.177
65.13
67.833
70.288
72.522
74.585
76.539
78.451
80.371
82.328
84.346
86.447
88.65
90.972
93.421
95.993
98.686
101.503
104.446
107.522
110.727
114.05
117.478
120.998
124.597
128.264
131.982
135.737
139.513
143.297
147.074
150.832
154.554
158.222
161.815
165.312
168.691
171.93
175.007
177.898
180.581
183.034
185.238
187.174
188.823
190.167
191.192
191.882
192.224
192.208
191.823
191.061
189.918
188.389
186.474
184.174
181.492
178.434
175.006
171.219
167.085
162.617
157.829
152.739
147.366
141.731
135.854
129.76
123.473
117.018
110.421
103.711
96.913
90.056
83.166
76.271
69.398
62.574
55.823
49.172
42.644
36.262
30.047
24.021
18.201
12.605
7.248
2.145
-2.694
-7.257
-11.536
-15.524
-19.217
-22.611
-25.705
-28.499
-30.995
-33.197
-35.11
-36.741
-38.097
-39.187
-40.023
-40.614
-40.975
-41.118
-41.056
-40.806
-40.382
-39.8
-39.075
-38.224
-37.263
-36.208
-35.074
-33.877
-32.631
-31.352
-30.054
-28.75
-27.454
-26.178
-24.934
-23.732
-22.583
-21.496
-20.48
-19.541
-18.688
-17.925
-17.259
-16.693
-16.232
-15.879
-15.636
-15.503
-15.482
-15.572
-15.772
-16.079
-16.492
-17.006
-17.618
-18.324
-19.119
-19.998
-20.955
-21.985
-23.08
-24.232
-25.435
-26.68
-27.957
-29.259
-30.577
-31.902
-33.224
-34.536
-35.828
-37.091
-38.315
-39.492
-40.612
-41.667
-42.647
-43.543
-44.348
-45.055
-45.656
-46.147
-46.524
-46.781
-46.915
-46.924
-46.805
-46.557
-46.18
-45.674
-45.039
-44.279
-43.398
-42.403
-41.301
-40.101
-38.813
-37.447
-36.016
-34.531
-33.003
-31.444
-29.863
-28.271
-26.681
-25.105
-23.558
-22.053
-20.603
-19.223
-17.926
-16.72
-15.618
-14.623
-13.738
-12.966
-12.311
-11.779
-11.386
-11.143
-11.057
-11.136
-11.378
-11.779
-12.334
-13.026
-13.827
-14.715
-15.662
-16.644
-17.653
-18.676
-19.7
-20.712
-21.675
-22.553
-23.332
-24.001
-24.565
-25.044
-25.456
-25.835
-26.244
-26.752
-27.436
-28.375
-29.626
-31.231
-33.206
-35.573
-38.399
-41.735
-45.549
-49.699
-53.887
-57.797
-61.205
-63.864
-65.446
-65.657
-64.305
-61.557
-58.127
-54.795
-52.159
-50.899
-51.672
-55.062
-61.736
-70.49
-77.998
-81.389
-77.788
-68.172
-57.731
-48.137
-39.229
-24.9
7.908
66.147
152.216
261.297
376.971
482.355
560.543
594.868
576.469
503.383
379.577
218.647
40.001
-136.555
-289.891
-404.814
-476.23
-506.028
-504.43
-483.065
-448.959
-406.058
-356.305
-303.435
-253.278
-210.984
-177.738
-149.728
-123.057
-95.997
-69.858
-48.931
-35.692
-29.777
-29.667
-32.464
-35.718
-38.258
-39.102
-37.869
-34.78
-30.085
-24.063
-17.216
-10.172
-3.623
1.617
5.136
7.056
7.66
7.263
6.186
4.669
3.029
1.748
1.134
1.281
2.2
3.786
5.955
8.704
11.986
15.677
19.66
23.796
27.947
32.062
36.098
40.005
43.743
47.251
50.483
53.437
56.129
58.575
60.788
62.772
64.536
66.121
67.583
68.977
70.369
71.8
73.299
74.897
76.621
78.49
80.521
82.714
85.058
87.552
90.194
92.984
95.923
99
102.201
105.512
108.917
112.4
115.945
119.535
123.151
126.777
130.395
133.991
137.548
141.049
144.473
147.797
151
154.059
156.949
159.648
162.132
164.378
166.365
168.072
169.482
170.575
171.337
171.752
171.808
171.494
170.801
169.723
168.256
166.397
164.146
161.506
158.481
155.078
151.305
147.174
142.696
137.887
132.762
127.341
121.641
115.686
109.497
103.099
96.517
89.778
82.908
75.935
68.888
61.794
54.684
47.584
40.523
33.528
26.627
19.845
13.207
6.737
0.456
-5.615
-11.457
-17.053
-22.386
-27.444
-32.214
-36.685
-40.85
-44.701
-48.234
-51.446
-54.337
-56.907
-59.158
-61.096
-62.725
-64.055
-65.093
-65.849
-66.336
-66.565
-66.551
-66.309
-65.854
-65.204
-64.377
-63.389
-62.26
-61.008
-59.653
-58.211
-56.703
-55.145
-53.555
-51.95
-50.346
-48.76
-47.206
-45.697
-44.248
-42.869
-41.572
-40.366
-39.259
-38.258
-37.37
-36.598
-35.946
-35.417
-35.014
-34.735
-34.58
-34.548
-34.635
-34.838
-35.15
-35.564
-36.074
-36.669
-37.342
-38.082
-38.878
-39.72
-40.595
-41.493
-42.4
-43.305
-44.196
-45.06
-45.884
-46.657
-47.368
-48.006
-48.561
-49.023
-49.384
-49.638
-49.778
-49.797
-49.692
-49.458
-49.091
-48.591
-47.957
-47.188
-46.287
-45.256
-44.1
-42.829
-41.451
-39.975
-38.412
-36.773
-35.072
-33.322
-31.537
-29.727
-27.905
-26.085
-24.282
-22.511
-20.789
-19.129
-17.546
-16.057
-14.675
-13.412
-12.278
-11.275
-10.409
-9.687
-9.117
-8.711
-8.48
-8.429
-8.565
-8.891
-9.403
-10.094
-10.947
-11.929
-13.017
-14.189
-15.424
-16.71
-18.031
-19.366
-20.702
-22.017
-23.289
-24.5
-25.634
-26.683
-27.664
-28.612
-29.575
-30.624
-31.816
-33.205
-34.857
-36.826
-39.176
-41.96
-45.183
-48.863
-53.048
-57.763
-62.982
-68.569
-74.19
-79.481
-84.137
-87.807
-90.131
-90.812
-89.656
-86.86
-83.159
-79.392
-76.281
-74.634
-75.208
-78.579
-85.255
-93.996
-101.616
-105.266
-102.188
-92.875
-81.235
-68.41
-53.943
-32.238
7.287
69.8
156.449
260.388
365.924
458.395
523.076
550.442
536.926
480.865
385.651
253.948
93.259
-81.379
-253.306
-397.833
-495.357
-540.951
-537.754
-504.639
-464.225
-427.446
-400.108
-377.2
-347.419
-307.658
-257.932
-202.476
-150.368
-106.364
-72.564
-49.583
-35.151
-27.388
-25.138
-27.067
-31.795
-37.815
-43.481
-47.343
-48.774
-47.818
-44.739
-40.004
-34.327
-28.415
-23.038
-19.001
-16.555
-15.559
-15.803
-16.936
-18.583
-20.414
-22.006
-22.921
-22.961
-22.089
-20.34
-17.84
-14.675
-10.907
-6.671
-2.12
2.599
7.344
12.032
16.629
21.081
25.334
29.342
33.064
36.498
39.667
42.587
45.273
47.742
50.016
52.139
54.163
56.146
58.146
60.209
62.367
64.65
67.082
69.683
72.466
75.431
78.57
81.876
85.349
88.985
92.779
96.722
100.798
104.992
109.287
113.665
118.109
122.598
127.113
131.635
136.146
140.624
145.053
149.411
153.674
157.819
161.818
165.647
169.28
172.689
175.848
178.734
181.321
183.587
185.512
187.076
188.26
189.05
189.43
189.39
188.917
188.006
186.65
184.847
182.596
179.899
176.762
173.19
169.195
164.788
159.983
154.796
149.246
143.353
137.138
130.625
123.84
116.809
109.559
102.12
94.521
86.793
78.966
71.072
63.142
55.205
47.293
39.434
31.658
23.992
16.463
9.096
1.915
-5.057
-11.8
-18.294
-24.522
-30.469
-36.122
-41.47
-46.503
-51.214
-55.598
-59.651
-63.373
-66.763
-69.824
-72.56
-74.975
-77.078
-78.876
-80.379
-81.599
-82.547
-83.237
-83.683
-83.901
-83.906
-83.714
-83.344
-82.813
-82.137
-81.336
-80.427
-79.428
-78.356
-77.23
-76.065
-74.879
-73.686
-72.502
-71.342
-70.218
-69.142
-68.128
-67.183
-66.319
-65.543
-64.862
-64.283
-63.811
-63.45
-63.204
-63.074
-63.063
-63.169
-63.393
-63.733
-64.185
-64.745
-65.409
-66.171
-67.022
-67.955
-68.962
-70.033
-71.159
-72.327
-73.527
-74.748
-75.977
-77.202
-78.41
-79.589
-80.726
-81.808
-82.824
-83.762
-84.611
-85.36
-86
-86.521
-86.915
-87.175
-87.294
-87.265
-87.083
-86.746
-86.251
-85.595
-84.78
-83.805
-82.677
-81.4
-79.982
-78.432
-76.758
-74.973
-73.089
-71.12
-69.078
-66.977
-64.83
-62.651
-60.457
-58.267
-56.098
-53.968
-51.893
-49.891
-47.978
-46.171
-44.481
-42.913
-41.478
-40.183
-39.042
-38.074
-37.293
-36.71
-36.331
-36.164
-36.208
-36.456
-36.895
-37.497
-38.238
-39.1
-40.066
-41.13
-42.28
-43.498
-44.761
-46.038
-47.304
-48.536
-49.711
-50.822
-51.882
-52.918
-53.985
-55.158
-56.489
-58.041
-59.874
-62.038
-64.598
-67.614
-71.112
-75.145
-79.791
-85.06
-90.911
-97.173
-103.483
-109.457
-114.757
-118.995
-121.794
-122.921
-122.282
-120.182
-117.426
-114.93
-113.476
-113.674
-116.038
-120.902
-128.339
-137.832
-147.086
-152.436
-150.585
-138.746
-117.653
-91.499
-62.947
-34.025
-1.165
45.149
111.116
200.365
307.42
415.267
505.389
559.472
564.528
517.654
422.549
285.901
118.865
-62.689
-242.34
-398.834
-512.787
-577.637
-593.39
-571.125
-529.95
-482.011
-437.381
-401.076
-369.137
-338.362
-304.283
-262.925
-216.32
-168.815
-126.057
-92.442
-68.585
-52.781
-42.217
-35.195
-30.897
-28.228
-26.184
-23.452
-19.096
-13.193
-6.088
1.965
10.531
19.061
26.868
33.044
37.138
39.269
39.699
38.826
37.066
34.761
32.375
30.468
29.361
29.19
29.988
31.663
34.155
37.44
41.419
45.969
50.982
56.336
61.933
67.69
73.483
79.203
84.757
90.062
95.08
99.793
104.191
108.283
112.093
115.646
118.979
122.134
125.145
128.058
130.92
133.783
136.708
139.744
142.925
146.28
149.824
153.564
157.505
161.641
165.955
170.437
175.07
179.84
184.737
189.743
194.84
200.004
205.21
210.434
215.653
220.842
225.977
231.034
235.986
240.811
245.486
249.985
254.283
258.351
262.162
265.687
268.901
271.778
274.292
276.42
278.139
279.43
280.276
280.661
280.572
279.997
278.928
277.358
275.283
272.703
269.619
266.035
261.957
257.397
252.365
246.876
240.948
234.6
227.853
220.73
213.259
205.467
197.381
189.034
180.458
171.684
162.747
153.682
144.522
135.303
126.058
116.824
107.632
98.516
89.508
80.638
71.937
63.432
55.149
47.114
39.348
31.873
24.707
17.867
11.367
5.219
-0.568
-5.986
-11.03
-15.697
-19.988
-23.903
-27.447
-30.627
-33.45
-35.925
-38.066
-39.884
-41.395
-42.613
-43.557
-44.242
-44.689
-44.916
-44.944
-44.793
-44.483
-44.036
-43.472
-42.812
-42.076
-41.284
-40.456
-39.609
-38.762
-37.932
-37.134
-36.383
-35.693
-35.076
-34.543
-34.103
-33.764
-33.532
-33.413
-33.41
-33.524
-33.759
-34.112
-34.583
-35.168
-35.866
-36.669
-37.574
-38.572
-39.656
-40.817
-42.044
-43.329
-44.66
-46.026
-47.415
-48.816
-50.216
-51.603
-52.965
-54.29
-55.565
-56.778
-57.918
-58.973
-59.934
-60.791
-61.536
-62.163
-62.664
-63.036
-63.273
-63.373
-63.334
-63.154
-62.834
-62.376
-61.78
-61.051
-60.195
-59.218
-58.131
-56.943
-55.666
-54.313
-52.895
-51.429
-49.927
-48.402
-46.865
-45.33
-43.811
-42.321
-40.875
-39.489
-38.177
-36.952
-35.829
-34.818
-33.929
-33.169
-32.538
-32.041
-31.681
-31.462
-31.401
-31.508
-31.792
-32.257
-32.904
-33.726
-34.718
-35.862
-37.128
-38.493
-39.926
-41.403
-42.913
-44.438
-45.962
-47.471
-48.926
-50.289
-51.541
-52.665
-53.665
-54.562
-55.376
-56.141
-56.914
-57.756
-58.751
-59.986
-61.523
-63.412
-65.663
-68.294
-71.407
-75.083
-79.293
-83.868
-88.484
-92.799
-96.601
-99.65
-101.544
-101.927
-100.648
-98.017
-94.821
-91.836
-89.808
-89.476
-91.592
-97.044
-105.26
-113.696
-119.935
-121.589
-119.225
-116.873
-114.641
-109.279
-93.631
-57.276
2.669
81.874
172.236
264.342
352.545
432.504
497.415
533.62
525.644
464.831
350.412
195.862
23.187
-147.42
-296.106
-409.782
-484.223
-520.513
-526.976
-515.112
-494.263
-469.011
-439.385
-403.454
-359.672
-310.065
-258.726
-209.675
-166.741
-131.773
-105.019
-85.98
-73.455
-66.144
-62.911
-62.552
-63.661
-64.83
-64.776
-62.865
-59.13
-53.87
-47.531
-40.6
-33.65
-27.424
-22.725
-19.925
-18.949
-19.519
-21.207
-23.64
-26.504
-29.363
-31.731
-33.3
-33.936
-33.631
-32.476
-30.539
-27.852
-24.497
-20.588
-16.25
-11.613
-6.798
-1.912
2.957
7.73
12.327
16.69
20.78
24.576
28.088
31.333
34.327
37.088
39.643
42.018
44.259
46.415
48.539
50.691
52.914
55.243
57.708
60.33
63.122
66.089
69.226
72.52
75.965
79.552
83.274
87.122
91.085
95.145
99.287
103.492
107.738
112.006
116.278
120.533
124.753
128.918
133.009
137.01
140.9
144.658
148.261
151.685
154.906
157.902
160.649
163.124
165.307
167.177
168.718
169.911
170.744
171.204
171.278
170.958
170.237
169.109
167.57
165.621
163.263
160.498
157.333
153.775
149.834
145.522
140.854
135.844
130.51
124.871
118.948
112.763
106.339
99.702
92.877
85.893
78.777
71.558
64.265
56.926
49.572
42.231
34.93
27.697
20.559
13.54
6.665
-0.044
-6.564
-12.875
-18.959
-24.8
-30.381
-35.69
-40.714
-45.445
-49.874
-53.994
-57.802
-61.294
-64.469
-67.328
-69.872
-72.107
-74.037
-75.67
-77.014
-78.079
-78.877
-79.42
-79.722
-79.797
-79.661
-79.329
-78.819
-78.147
-77.33
-76.386
-75.332
-74.185
-72.962
-71.679
-70.352
-68.998
-67.63
-66.263
-64.91
-63.585
-62.299
-61.063
-59.888
-58.782
-57.755
-56.812
-55.96
-55.205
-54.551
-54
-53.557
-53.22
-52.991
-52.869
-52.852
-52.937
-53.12
-53.395
-53.758
-54.2
-54.715
-55.296
-55.933
-56.618
-57.341
-58.094
-58.866
-59.648
-60.429
-61.2
-61.95
-62.668
-63.346
-63.973
-64.54
-65.038
-65.46
-65.798
-66.046
-66.196
-66.244
-66.184
-66.012
-65.725
-65.32
-64.795
-64.15
-63.384
-62.501
-61.504
-60.401
-59.197
-57.9
-56.519
-55.064
-53.546
-51.975
-50.361
-48.712
-47.038
-45.35
-43.661
-41.984
-40.331
-38.715
-37.148
-35.644
-34.214
-32.868
-31.61
-30.443
-29.372
-28.402
-27.544
-26.813
-26.221
-25.775
-25.485
-25.354
-25.379
-25.557
-25.871
-26.292
-26.799
-27.371
-27.991
-28.648
-29.326
-30.008
-30.671
-31.29
-31.842
-32.302
-32.657
-32.908
-33.073
-33.183
-33.279
-33.417
-33.655
-34.067
-34.727
-35.708
-37.076
-38.871
-41.159
-44.039
-47.558
-51.708
-56.337
-61.141
-65.795
-70.011
-73.438
-75.652
-76.315
-75.282
-72.843
-69.694
-66.635
-64.424
-63.761
-65.428
-70.062
-77.723
-87.554
-97.933
-106.789
-111.803
-110.618
-100.564
-78.81
-44.29
1.355
55.482
114.752
177.921
247.457
323.787
402.934
474.863
523.667
534.539
499.346
418.944
300.587
156.573
1.965
-149.235
-280.525
-378.17
-437.668
-459.896
-453.433
-430.338
-397.041
-358.31
-318.513
-279.463
-244.02
-213.273
-183.456
-151.828
-118.031
-83.802
-53.988
-31.955
-17.918
-10.599
-7.85
-7.944
-9.784
-12.307
-14.351
-15.083
-14.276
-12.011
-8.422
-3.817
1.329
6.39
10.495
13.205
14.619
14.901
14.314
13.125
11.529
9.903
8.753
8.363
8.816
10.108
12.117
14.767
18.049
21.849
26.011
30.378
34.773
39.106
43.352
47.471
51.423
55.159
58.622
61.8
64.717
67.387
69.823
72.034
74.023
75.828
77.5
79.099
80.692
82.322
84.018
85.808
87.716
89.762
91.962
94.319
96.819
99.459
102.238
105.155
108.213
111.402
114.709
118.119
121.617
125.187
128.814
132.479
136.165
139.853
143.528
147.174
150.777
154.317
157.776
161.132
164.364
167.449
170.364
173.087
175.594
177.865
179.878
181.615
183.058
184.192
185
185.47
185.59
185.351
184.743
183.76
182.398
180.655
178.531
176.029
173.153
169.909
166.307
162.357
158.073
153.469
148.561
143.366
137.904
132.196
126.264
120.131
113.822
107.361
100.775
94.091
87.335
80.536
73.718
66.91
60.136
53.422
46.792
40.271
33.88
27.641
21.574
15.698
10.03
4.586
-0.62
-5.577
-10.273
-14.7
-18.851
-22.72
-26.305
-29.603
-32.614
-35.339
-37.781
-39.943
-41.832
-43.455
-44.82
-45.936
-46.813
-47.463
-47.899
-48.132
-48.177
-48.047
-47.756
-47.32
-46.753
-46.07
-45.286
-44.415
-43.471
-42.469
-41.422
-40.343
-39.243
-38.134
-37.028
-35.933
-34.86
-33.816
-32.809
-31.846
-30.932
-30.073
-29.272
-28.533
-27.859
-27.25
-26.708
-26.232
-25.824
-25.481
-25.201
-24.983
-24.823
-24.717
-24.662
-24.651
-24.68
-24.743
-24.833
-24.943
-25.068
-25.201
-25.334
-25.462
-25.578
-25.675
-25.746
-25.786
-25.788
-25.746
-25.655
-25.509
-25.303
-25.034
-24.697
-24.289
-23.808
-23.252
-22.618
-21.906
-21.115
-20.243
-19.293
-18.263
-17.156
-15.975
-14.723
-13.406
-12.033
-10.61
-9.146
-7.651
-6.133
-4.603
-3.07
-1.541
-0.023
1.475
2.947
4.382
5.771
7.103
8.371
9.563
10.671
11.686
12.602
13.416
14.129
14.739
15.242
15.632
15.892
16.012
15.983
15.8
15.462
14.975
14.347
13.598
12.76
11.861
10.93
9.992
9.056
8.135
7.246
6.403
5.638
4.984
4.45
4.04
3.745
3.535
3.375
3.216
2.975
2.568
1.903
0.889
-0.542
-2.446
-4.85
-7.784
-11.332
-15.546
-20.38
-25.667
-31.079
-36.271
-41.022
-45.09
-48.069
-49.616
-49.601
-48.234
-46.308
-44.648
-43.644
-43.721
-45.541
-49.597
-56.082
-63.625
-68.948
-69.305
-63.434
-52.888
-40.761
-27.033
-8.777
20.03
65.611
128.057
203.418
284.808
363.091
431.263
482.036
507.245
499.96
454.863
371.439
252.456
105.917
-53.457
-209.33
-340.64
-430.023
-474.351
-477.53
-452.874
-416.588
-373.274
-326.011
-277.138
-226.155
-180.286
-144.069
-115.734
-95.196
-78.596
-63.57
-53.11
-47.9
-47.704
-51.609
-55.963
-58.15
-57.526
-54.024
-48.289
-41.165
-33.23
-25.055
-17.539
-11.609
-7.631
-5.607
-5.301
-6.244
-8.056
-10.478
-13.125
-15.567
-17.536
-18.838
-19.395
-19.269
-18.496
-17.085
-15.079
-12.547
-9.573
-6.292
-2.85
0.654
4.14
7.554
10.864
14.028
17.006
19.769
22.31
24.635
26.756
28.677
30.397
31.93
33.311
34.601
35.872
37.178
38.557
40.039
41.643
43.39
45.298
47.37
49.599
51.975
54.496
57.16
59.97
62.921
66.002
69.195
72.481
75.842
79.262
82.724
86.206
89.69
93.157
96.592
99.98
103.306
106.55
109.691
112.709
115.584
118.296
120.824
123.149
125.253
127.119
128.732
130.08
131.152
131.936
132.427
132.617
132.503
132.084
131.36
130.332
129.007
127.391
125.493
123.324
120.897
118.228
115.331
112.227
108.934
105.474
101.868
98.14
94.313
90.411
86.461
82.488
78.517
74.573
70.684
66.872
63.164
59.583
56.15
52.887
49.814
46.949
44.31
41.912
39.767
37.888
36.284
34.963
33.932
33.193
32.75
32.603
32.749
33.187
33.91
34.913
36.188
37.725
39.514
41.544
43.8
46.27
48.939
51.791
54.811
57.982
61.287
64.709
68.23
71.834
75.504
79.221
82.969
86.732
90.493
94.236
97.947
101.61
105.212
108.741
112.184
115.531
118.772
121.896
124.896
127.763
130.492
133.076
135.512
137.795
139.924
141.896
143.712
145.373
146.879
148.233
149.435
150.489
151.399
152.172
152.815
153.338
153.747
154.052
154.264
154.392
154.448
154.441
154.378
154.271
154.129
153.968
153.805
153.655
153.528
153.432
153.374
153.362
153.403
153.507
153.678
153.926
154.257
154.687
155.234
155.915
156.74
157.71
158.819
160.066
161.462
163.026
164.8
166.803
169.036
171.491
174.148
176.996
180.053
183.295
186.651
190.101
193.661
197.446
201.697
206.498
211.743
217.294
222.963
228.531
233.81
238.367
241.492
242.838
242.451
240.631
237.973
234.983
231.972
229.554
228.641
229.717
232.83
237.588
243.096
248.674
253.963
258.41
261.322
262.289
261.162
258.2
254.119
249.419
244.326
239.116
234.042
229.277
224.962
221.027
217.188
213.305
209.362
205.353
201.329
197.294
193.195
189.035
184.841
180.588
176.224
171.66
166.77
161.469
155.704
149.455
142.703
135.354
127.359
118.773
109.778
100.746
92.054
83.925
76.62
70.5
65.793
62.569
60.531
58.738
56.262
52.529
46.862
38.628
27.503
13.232
-2.674
-16.478
-24.847
-24.857
-17.139
-6.382
4.899
15.895
32.17
65.727
124.313
211.402
320.193
431.852
526.436
585.007
595.138
554.739
467.777
341.933
187.393
16.322
-157.01
-314.872
-440.189
-521.456
-555.926
-551.96
-523.047
-483.968
-445.56
-411.192
-381.735
-353.955
-323.734
-290.479
-253.55
-215.836
-182.693
-156.487
-138.792
-129.148
-124.556
-123.606
-125.593
-129.245
-133.9
-138.604
-142.028
-143.857
-144.367
-143.648
-141.984
-139.889
-137.77
-136.279
-136.155
-137.552
-140.289
-144.136
-148.747
-153.805
-159.049
-164.093
-168.514
-172.107
-174.814
-176.66
-177.757
-178.176
-177.967
-177.224
-176.078
-174.656
-173.085
-171.48
-169.905
-168.422
-167.101
-165.996
-165.147
-164.58
-164.286
-164.247
-164.446
-164.867
-165.483
-166.271
-167.191
-168.197
-169.24
-170.267
-171.239
-172.123
-172.895
-173.534
-174.028
-174.371
-174.566
-174.625
-174.558
-174.37
-174.072
-173.671
-173.178
-172.61
-171.982
-171.314
-170.625
-169.931
-169.252
-168.606
-168.011
-167.484
-167.042
-166.701
-166.476
-166.387
-166.451
-166.688
-167.117
-167.755
-168.62
-169.73
-171.1
-172.743
-174.672
-176.896
-179.424
-182.263
-185.416
-188.886
-192.674
-196.777
-201.192
-205.911
-210.927
-216.228
-221.802
-227.633
-233.704
-239.996
-246.488
-253.157
-259.98
-266.93
-273.983
-281.111
-288.287
-295.482
-302.668
-309.816
-316.897
-323.884
-330.747
-337.461
-343.997
-350.331
-356.438
-362.296
-367.885
-373.184
-378.178
-382.85
-387.188
-391.18
-394.818
-398.096
-401.008
-403.554
-405.733
-407.55
-409.009
-410.117
-410.885
-411.325
-411.449
-411.273
-410.814
-410.09
-409.12
-407.925
-406.526
-404.946
-403.207
-401.334
-399.35
-397.28
-395.148
-392.977
-390.793
-388.617
-386.472
-384.381
-382.364
-380.441
-378.631
-376.952
-375.42
-374.051
-372.857
-371.85
-371.041
-370.438
-370.048
-369.874
-369.922
-370.192
-370.684
-371.398
-372.33
-373.478
-374.834
-376.395
-378.151
-380.095
-382.218
-384.509
-386.958
-389.553
-392.282
-395.132
-398.091
-401.145
-404.281
-407.486
-410.747
-414.05
-417.381
-420.728
-424.077
-427.416
-430.732
-434.014
-437.251
-440.432
-443.548
-446.589
-449.55
-452.422
-455.198
-457.874
-460.443
-462.902
-465.246
-467.472
-469.577
-471.557
-473.41
-475.136
-476.732
-478.199
-479.536
-480.742
-481.819
-482.765
-483.583
-484.272
-484.834
-485.271
-485.583
-485.773
-485.844
-485.798
-485.639
-485.37
-484.993
-484.513
-483.933
-483.255
-482.481
-481.613
-480.654
-479.604
-478.468
-477.246
-475.941
-474.559
-473.104
-471.58
-469.994
-468.351
-466.655
-464.91
-463.121
-461.288
-459.412
-457.494
-455.534
-453.533
-451.493
-449.416
-447.3
-445.147
-442.953
-440.717
-438.433
-436.096
-433.695
-431.225
-428.683
-426.073
-423.412
-420.712
-417.978
-415.217
-412.433
-409.622
-406.784
-403.898
-400.934
-397.863
-394.655
-391.289
-387.759
-384.046
-380.126
-375.973
-371.536
-366.778
-361.692
-356.269
-350.511
-344.441
-338.075
-331.467
-324.736
-317.992
-311.363
-304.963
-298.844
-293.091
-287.818
-283.11
-279.042
-275.566
-272.414
-269.299
-265.975
-262.13
-257.467
-251.687
-244.493
-236.03
-226.986
-218.189
-210.444
-204.567
-201.285
-201.245
-205.012
-211.238
-216.536
-217.652
-211.205
-197.348
-179.901
-159.689
-136.007
-102.997
-49.456
29.788
135.507
260.86
390.162
509
602.42
659.353
673.179
638.135
555.042
426.471
262.418
83.402
-89.403
-230.498
-320.952
-358.224
-346.631
-300.614
-238.317
-169.464
-102.289
-40.566
18.251
74.846
131.827
191.408
250.854
306.757
354.656
391.092
416.227
432.188
441.898
447.711
451.166
453.053
454.167
455.763
458.639
463.15
469.44
477.238
486.307
496.883
508.708
521.094
533.531
545.254
555.765
565.055
572.897
578.899
583.068
585.629
586.974
587.835
588.641
589.491
590.589
592.093
594.033
596.385
598.915
601.242
603.166
604.623
605.571
606.015
605.933
605.291
604.136
602.552
600.595
598.302
595.683
592.746
589.534
586.113
582.571
578.983
575.406
571.897
568.513
565.316
562.378
559.758
557.498
555.642
554.229
553.293
552.869
552.981
553.644
554.858
556.602
558.846
561.558
564.696
568.207
572.021
576.044
580.184
584.355
588.47
592.444
596.212
599.727
602.959
605.9
608.57
611.015
613.304
615.524
617.764
620.123
622.717
625.685
629.179
633.357
638.384
644.433
651.644
660.115
669.905
681.031
693.454
707.091
721.804
737.406
753.717
770.551
787.716
804.994
822.118
838.782
854.64
869.32
882.455
893.717
902.804
909.444
913.434
914.628
912.947
908.375
900.89
890.45
877.012
860.564
841.166
818.965
794.18
767.085
738.001
707.256
675.206
642.22
608.627
574.724
540.769
506.99
473.639
441.019
409.466
379.298
350.787
324.121
299.409
276.711
256.019
237.285
220.41
205.253
191.682
179.576
168.818
159.292
150.851
143.29
136.357
129.802
123.373
116.876
110.174
103.155
95.758
87.957
79.764
71.221
62.376
53.271
43.943
34.437
24.804
15.133
5.54
-3.857
-12.926
-21.569
-29.721
-37.331
-44.375
-50.851
-56.77
-62.163
-67.072
-71.531
-75.567
-79.209
-82.483
-85.426
-88.089
-90.52
-92.777
-94.903
-96.929
-98.88
-100.771
-102.611
-104.404
-106.146
-107.829
-109.449
-111.005
-112.504
-113.951
-115.352
-116.709
-118.023
-119.294
-120.524
-121.714
-122.866
-123.982
-125.064
-126.117
-127.15
-128.172
-129.195
-130.227
-131.276
-132.348
-133.45
-134.585
-135.756
-136.962
-138.201
-139.471
-140.776
-142.12
-143.513
-144.958
-146.454
-147.991
-149.556
-151.124
-152.664
-154.14
-155.514
-156.756
-157.846
-158.778
-159.557
-160.194
-160.701
-161.077
-161.306
-161.376
-161.277
-161.005
-160.566
-159.98
-159.284
-158.525
-157.761
-157.031
-156.35
-155.702
-155.036
-154.28
-153.349
-152.174
-150.71
-148.914
-146.751
-144.183
-141.171
-137.663
-133.597
-128.894
-123.455
-117.207
-110.112
-102.175
-93.452
-84.029
-74.022
-63.533
-52.653
-41.472
-30.08
-18.556
-6.972
4.598
16.07
27.347
38.305
48.849
58.925
68.514
77.625
86.287
94.533
102.391
109.897
117.094
124.016
130.672
137.033
143.058
148.719
153.997
158.889
163.347
167.245
170.433
172.776
174.153
174.508
173.784
171.819
168.479
163.743
157.733
150.763
143.175
135.158
126.912
118.819
111.227
104.318
97.9
91.263
83.668
74.425
62.743
47.754
28.57
5.979
-17.238
-38.388
-54.572
-66.485
-78.901
-92.085
-104.084
-108.264
-90.831
-46.464
24.491
117.273
216.151
308.543
382.615
424.557
426.555
381.426
287.195
149.026
-23.424
-213.207
-401.397
-567.874
-694.4
-772.393
-801.891
-790.804
-753.474
-703.095
-648.856
-598.862
-557.109
-523.527
-497.604
-474.688
-449.355
-420.863
-389.96
-359.649
-334.315
-314.699
-299.643
-287.441
-275.305
-261.597
-245.697
-227.311
-206.815
-184.735
-161.525
-137.757
-114.156
-91.574
-70.957
-52.937
-37.687
-25.143
-15.086
-7.265
-1.474
2.586
5.334
7.093
8.045
8.274
7.788
6.635
4.983
3.015
0.902
-1.16
-3.017
-4.531
-5.523
-5.864
-5.46
-4.24
-2.167
0.792
4.72
9.726
15.896
23.273
31.835
41.513
52.233
63.894
76.394
89.61
103.386
117.603
132.174
147.038
162.14
177.403
192.714
207.94
222.982
237.775
252.278
266.471
280.336
293.869
307.098
320.087
332.922
345.663
358.365
371.072
383.847
396.789
410.003
423.577
437.579
452.039
466.974
482.395
498.298
514.667
531.466
548.626
566.065
583.685
601.343
618.861
636.025
652.546
668.15
682.578
695.559
706.875
716.326
723.721
728.898
731.705
731.976
729.552
724.309
716.156
705.092
691.194
674.595
655.53
634.255
611.05
586.239
560.119
532.979
505.116
476.824
448.424
420.303
392.872
366.523
341.628
318.474
297.314
278.363
261.658
247.204
234.955
224.79
216.725
210.803
206.86
204.711
204.32
205.491
208.058
211.91
216.442
221.037
225.405
229.199
231.982
233.485
233.238
230.742
226.194
219.822
211.629
201.776
190.383
177.538
163.672
149.255
134.278
118.758
102.82
86.508
70.052
53.686
37.432
21.322
5.546
-9.739
-24.404
-38.32
-51.496
-63.973
-75.76
-86.898
-97.457
-107.51
-117.144
-126.456
-135.532
-144.435
-153.212
-161.905
-170.536
-179.121
-187.674
-196.187
-204.636
-212.998
-221.241
-229.324
-237.217
-244.881
-252.272
-259.345
-266.045
-272.334
-278.186
-283.58
-288.503
-292.947
-296.904
-300.378
-303.38
-305.922
-308.014
-309.668
-310.893
-311.703
-312.117
-312.154
-311.836
-311.185
-310.219
-308.957
-307.419
-305.625
-303.593
-301.342
-298.887
-296.246
-293.439
-290.485
-287.405
-284.219
-280.946
-277.604
-274.213
-270.79
-267.35
-263.908
-260.478
-257.071
-253.699
-250.373
-247.103
-243.897
-240.763
-237.711
-234.745
-231.873
-229.098
-226.424
-223.854
-221.392
-219.04
-216.8
-214.673
-212.662
-210.769
-209
-207.359
-205.848
-204.47
-203.228
-202.128
-201.171
-200.359
-199.69
-199.165
-198.786
-198.556
-198.478
-198.555
-198.788
-199.182
-199.739
-200.462
-201.352
-202.405
-203.614
-204.974
-206.485
-208.148
-209.972
-211.963
-214.119
-216.441
-218.926
-221.566
-224.351
-227.257
-230.252
-233.305
-236.394
-239.496
-242.599
-245.683
-248.722
-251.691
-254.557
-257.293
-259.874
-262.284
-264.523
-266.607
-268.569
-270.452
-272.315
-274.217
-276.23
-278.433
-280.895
-283.691
-286.876
-290.521
-294.723
-299.521
-304.884
-310.654
-316.524
-322.156
-327.224
-331.366
-334.185
-335.416
-334.982
-333.21
-330.804
-328.561
-327.33
-327.817
-330.555
-336.002
-344.23
-354.373
-365.007
-373.424
-375.505
-368.217
-349.829
-321.155
-286.654
-249.877
-210.203
-162.963
-100.078
-15.621
86.883
194.675
288.842
349.472
363.102
325.434
240.11
115.769
-35.067
-198.13
-358.813
-500.408
-609.784
-681.024
-713.771
-715.579
-696.813
-663.771
-622.14
-576.594
-529.469
-485.622
-447.36
-411.934
-378.012
-343.828
-309.73
-280.211
-257.55
-242.296
-233.673
-229.065
-226.665
-225.247
-223.587
-220.834
-216.503
-210.572
-203.381
-195.288
-186.702
-178.153
-170.309
-163.976
-159.553
-156.939
-155.838
-155.84
-156.589
-157.818
-159.148
-160.082
-160.29
-159.626
-158.058
-155.673
-152.534
-148.646
-144.06
-138.877
-133.21
-127.189
-120.937
-114.55
-108.104
-101.666
-95.299
-89.068
-83.02
-77.176
-71.531
-66.068
-60.77
-55.629
-50.63
-45.746
-40.935
-36.145
-31.324
-26.419
-21.391
-16.21
-10.851
-5.295
0.466
6.435
12.599
18.942
25.451
32.114
38.918
45.851
52.891
60.017
67.206
74.432
81.67
88.894
96.08
103.201
110.236
117.16
123.952
130.59
137.052
143.314
149.351
155.137
160.647
165.857
170.744
175.285
179.459
183.246
186.63
189.597
192.133
194.229
195.875
197.065
197.796
198.064
197.872
197.222
196.118
194.568
192.581
190.169
187.345
184.126
180.529
176.572
172.276
167.664
162.757
157.582
152.164
146.529
140.705
134.72
128.605
122.387
116.097
109.764
103.417
97.084
90.793
84.57
78.44
72.428
66.557
60.846
55.318
49.989
44.876
39.995
35.359
30.979
26.865
23.026
19.468
16.195
13.211
10.516
8.11
5.991
4.155
2.598
1.314
0.294
-0.472
-0.992
-1.28
-1.348
-1.209
-0.879
-0.372
0.297
1.112
2.057
3.117
4.275
5.517
6.826
8.189
9.59
11.016
12.454
13.89
15.313
16.711
18.075
19.393
20.658
21.861
22.996
24.056
25.035
25.93
26.736
27.452
28.074
28.603
29.038
29.381
29.634
29.798
29.878
29.876
29.798
29.647
29.429
29.147
28.808
28.417
27.978
27.497
26.979
26.429
25.851
25.252
24.633
24
23.356
22.704
22.047
21.388
20.73
20.074
19.423
18.778
18.14
17.511
16.889
16.276
15.671
15.073
14.482
13.896
13.315
12.737
12.162
11.587
11.012
10.436
9.858
9.278
8.694
8.106
7.515
6.922
6.328
5.734
5.143
4.559
3.985
3.424
2.88
2.359
1.863
1.399
0.971
0.584
0.244
-0.043
-0.271
-0.435
-0.528
-0.544
-0.477
-0.324
-0.078
0.264
0.707
1.253
1.906
2.668
3.542
4.529
5.63
6.845
8.173
9.613
11.161
12.81
14.554
16.385
18.292
20.267
22.297
24.373
26.483
28.618
30.771
32.932
35.09
37.236
39.357
41.444
43.485
45.469
47.39
49.238
51.008
52.696
54.306
55.835
57.281
58.636
59.881
61.003
61.996
62.853
63.573
64.16
64.616
64.961
65.225
65.436
65.622
65.803
65.984
66.18
66.41
66.7
67.096
67.635
68.326
69.173
70.174
71.305
72.546
73.856
75.135
76.292
77.232
77.856
78.111
77.964
77.349
76.182
74.393
71.954
69.007
65.86
62.805
60.107
58.037
56.895
57.007
58.592
61.413
64.707
67.615
69.414
69.438
67.096
61.896
53.347
42.605
32.961
27.606
29.615
39.451
53.137
68.29
84.76
104.938
138.22
192.29
269.656
370.083
482.816
591.67
680.891
733.363
737.273
688.336
587.423
440.344
260.936
69.085
-113.107
-260.64
-358.337
-406.066
-411.948
-392.272
-360.887
-322.412
-279.391
-234.111
-189.285
-149.746
-117.287
-88.15
-58.816
-27.741
3.875
31.137
50.79
62.903
68.949
71.533
72.736
73.394
74.256
76.164
79.531
84.36
90.46
97.464
104.866
112.228
118.953
124.232
127.714
129.45
129.62
128.58
126.701
124.243
121.593
119.265
117.551
116.592
116.441
117.017
118.272
120.204
122.745
125.787
129.241
133.001
136.974
141.101
145.283
149.429
153.469
157.318
160.93
164.284
167.364
170.173
172.729
175.04
177.13
179.034
180.781
182.411
183.967
185.487
187.024
188.617
190.294
192.082
193.993
196.033
198.201
200.492
202.89
205.383
207.959
210.6
213.293
216.024
218.77
221.512
224.225
226.886
229.473
231.964
234.339
236.575
238.653
240.552
242.255
243.742
244.992
245.984
246.696
247.105
247.194
246.941
246.328
245.339
243.958
242.173
239.973
237.351
234.298
230.811
226.887
222.525
217.728
212.5
206.847
200.779
194.305
187.44
180.198
172.597
164.656
156.394
147.833
138.997
129.909
120.596
111.083
101.399
91.571
81.629
71.602
61.52
51.413
41.31
31.24
21.232
11.315
1.515
-8.143
-17.633
-26.932
-36.017
-44.868
-53.465
-61.792
-69.832
-77.571
-84.998
-92.101
-98.873
-105.308
-111.399
-117.145
-122.543
-127.595
-132.302
-136.668
-140.699
-144.4
-147.779
-150.847
-153.614
-156.091
-158.291
-160.228
-161.917
-163.372
-164.609
-165.644
-166.494
-167.174
-167.703
-168.097
-168.372
-168.545
-168.633
-168.65
-168.613
-168.536
-168.433
-168.317
-168.202
-168.098
-168.016
-167.966
-167.957
-167.996
-168.09
-168.244
-168.463
-168.752
-169.112
-169.545
-170.054
-170.637
-171.294
-172.023
-172.821
-173.687
-174.614
-175.599
-176.636
-177.719
-178.842
-179.999
-181.183
-182.386
-183.603
-184.826
-186.049
-187.264
-188.464
-189.644
-190.797
-191.918
-193.002
-194.045
-195.044
-195.998
-196.905
-197.764
-198.576
-199.341
-200.059
-200.729
-201.353
-201.931
-202.463
-202.954
-203.405
-203.822
-204.211
-204.579
-204.936
-205.29
-205.652
-206.029
-206.431
-206.863
-207.33
-207.838
-208.395
-209.014
-209.7
-210.456
-211.28
-212.174
-213.132
-214.143
-215.189
-216.241
-217.27
-218.257
-219.182
-220.033
-220.794
-221.454
-221.999
-222.42
-222.721
-222.916
-223.02
-223.047
-223.012
-222.94
-222.878
-222.901
-223.068
-223.416
-223.979
-224.783
-225.873
-227.305
-229.1
-231.241
-233.672
-236.298
-239.064
-241.982
-244.957
-247.787
-250.243
-252.021
-252.966
-253.159
-252.499
-250.688
-247.68
-243.626
-238.85
-234.014
-229.341
-224.451
-219.246
-213.788
-207.765
-200.738
-191.894
-179.93
-164.429
-145.95
-124.975
-102.234
-78.874
-56.121
-35.819
-20.201
-10.463
-6.878
-9.486
-17.76
-30.847
-47.687
-66.5
-85.365
-103.059
-118.861
-132.362
-143.541
-152.488
-159.544
-165.529
-171.207
-177.022
-183.193
-189.711
-196.49
-203.509
-210.697
-217.858
-224.845
-231.65
-238.379
-245.228
-252.372
-259.77
-267.135
-274.138
-280.488
-285.863
-289.962
-292.494
-293.229
-292.43
-290.866
-289.352
-288.616
-289.328
-292.063
-297.416
-305.944
-316.254
-325.247
-330.369
-328.767
-320.725
-309.88
-295.823
-277.068
-249.482
-203.596
-136.914
-50.656
51.951
159.473
262.53
350.823
410.808
432.426
406.443
330.05
208.325
52.159
-121.115
-293.847
-447.865
-566.739
-641.296
-668.556
-654.633
-613.948
-561.949
-511.91
-471.265
-439.05
-409.621
-376.443
-335.331
-287.31
-237.771
-193.413
-158.587
-134.218
-118.55
-108.491
-102.236
-98.773
-96.773
-94.991
-91.944
-86.581
-78.867
-69.139
-57.693
-44.982
-31.636
-18.442
-6.339
4.2
13.236
20.994
27.759
33.786
39.303
44.673
50.391
56.755
63.85
71.652
80.04
88.934
98.295
108.022
117.943
127.878
137.688
147.284
156.644
165.751
174.57
183.063
191.192
198.949
206.347
213.405
220.137
226.552
232.666
238.517
244.168
249.694
255.156
260.6
266.058
271.558
277.127
282.793
288.573
294.471
300.491
306.635
312.909
319.324
325.883
332.58
339.402
346.335
353.362
360.473
367.653
374.884
382.147
389.422
396.69
403.935
411.134
418.258
425.274
432.143
438.83
445.298
451.51
457.428
463.016
468.235
473.054
477.444
481.374
484.809
487.71
490.031
491.737
492.804
493.213
492.954
492.019
490.397
488.09
485.109
481.455
477.124
472.097
466.338
459.83
452.571
444.567
435.85
426.44
416.338
405.553
394.083
381.917
369.056
355.474
341.117
325.97
310.037
293.348
275.99
258.032
239.516
220.49
200.972
180.991
160.607
139.876
118.866
97.678
76.414
55.208
34.253
13.708
-6.291
-25.629
-44.28
-62.21
-79.351
-95.647
-111.01
-125.355
-138.648
-150.868
-162.008
-172.109
-181.231
-189.475
-197.028
-204.081
-210.811
-217.384
-223.883
-230.39
-237.03
-243.944
-251.317
-259.326
-268.083
-277.673
-288.173
-299.617
-311.997
-325.246
-339.19
-353.605
-368.277
-382.991
-397.572
-411.823
-425.476
-438.199
-449.59
-459.259
-466.86
-472.052
-474.496
-473.842
-469.763
-462.025
-450.511
-435.163
-415.943
-392.788
-365.597
-334.422
-299.493
-261.124
-219.76
-175.737
-129.221
-80.574
-30.36
20.991
73.138
125.827
179.011
232.245
284.55
335.174
383.589
429.121
471.153
509
541.755
569.134
591.579
609.353
622.614
631.649
636.648
637.976
636.306
631.834
624.268
613.497
599.489
582.306
562.242
539.459
513.938
485.911
455.822
424.083
391.144
357.322
322.758
287.659
252.292
216.905
181.771
147.156
113.273
80.361
48.692
18.514
-9.931
-36.45
-60.944
-83.36
-103.68
-121.881
-137.924
-151.791
-163.501
-173.116
-180.739
-186.505
-190.557
-193.067
-194.275
-194.448
-193.875
-192.833
-191.53
-190.137
-188.83
-187.782
-187.15
-187.075
-187.658
-188.975
-191.118
-194.149
-198.096
-202.953
-208.635
-215.018
-221.967
-229.329
-236.967
-244.754
-252.537
-260.153
-267.485
-274.433
-280.919
-286.88
-292.21
-296.823
-300.673
-303.745
-306.067
-307.683
-308.624
-308.929
-308.664
-307.9
-306.726
-305.235
-303.469
-301.455
-299.216
-296.775
-294.174
-291.435
-288.529
-285.41
-282.035
-278.381
-274.47
-270.324
-265.921
-261.24
-256.273
-251.026
-245.544
-239.865
-233.966
-227.841
-221.562
-215.186
-208.759
-202.295
-195.668
-188.726
-181.367
-173.397
-164.499
-154.524
-143.54
-131.791
-119.844
-108.431
-98.205
-89.974
-84.957
-83.171
-82.897
-82.434
-79.547
-74.202
-70.973
-72.565
-78.361
-83.92
-76.966
-46.768
10.677
94.406
193.044
290.901
372.775
423.487
434.822
403.837
333.767
232.645
106.494
-35.617
-184.198
-328.101
-449.318
-534.89
-580.133
-588.182
-573.203
-549.304
-523.032
-496.079
-465.178
-426.346
-380.835
-332.568
-285.866
-245.205
-212.624
-187.912
-170.245
-158.441
-151.138
-146.984
-144.667
-142.477
-138.797
-132.992
-125.018
-115.143
-104.001
-92.229
-80.406
-69.484
-60.502
-53.946
-49.941
-48.308
-48.6
-50.473
-53.64
-57.63
-61.876
-65.905
-69.348
-72.026
-73.914
-74.977
-75.171
-74.478
-72.91
-70.528
-67.415
-63.647
-59.295
-54.407
-49.039
-43.277
-37.235
-31.056
-24.893
-18.848
-12.982
-7.353
-1.999
3.045
7.751
12.131
16.217
20.031
23.597
26.924
30.012
32.883
35.57
38.112
40.551
42.913
45.204
47.434
49.6
51.697
53.712
55.621
57.394
59.008
60.453
61.716
62.794
63.677
64.35
64.795
64.987
64.896
64.497
63.779
62.744
61.402
59.782
57.911
55.821
53.563
51.167
48.651
46.027
43.285
40.422
37.476
34.491
31.524
28.623
25.79
23.004
20.257
17.499
14.65
11.673
8.53
5.248
1.973
-1.158
-4.04
-6.592
-8.794
-10.852
-13.183
-16.303
-20.801
-27.151
-35.568
-46.058
-58.538
-72.424
-86.542
-99.631
-110.321
-117.36
-120.092
-118.185
-111.284
-99.74
-84.741
-67.576
-49.927
-33.62
-19.792
-9.37
-3.436
-2.355
-5.768
-13.207
-23.608
-35.544
-48.108
-60.435
-71.509
-80.851
-88.389
-94.128
-98.503
-102.203
-105.554
-108.826
-112.366
-116.231
-120.346
-124.61
-128.737
-132.41
-135.554
-138.207
-140.383
-142.181
-143.677
-144.921
-146.065
-147.243
-148.511
-149.893
-151.368
-152.885
-154.427
-155.987
-157.477
-158.772
-159.684
-159.958
-159.412
-157.919
-155.353
-151.614
-146.585
-140.148
-132.22
-122.739
-111.643
-98.867
-84.358
-68.08
-50.099
-30.56
-9.677
12.254
34.985
58.313
82.028
105.931
129.801
153.397
176.479
198.819
220.132
240.092
258.375
274.668
288.761
300.544
309.976
317.093
321.926
324.502
324.877
323.125
319.345
313.668
306.237
297.209
286.818
275.37
263.187
250.605
237.89
225.233
212.786
200.656
188.935
177.704
167.013
156.894
147.373
138.465
130.181
122.526
115.452
108.873
102.682
96.763
91.039
85.474
80.05
74.769
69.648
64.714
60.01
55.59
51.498
47.77
44.437
41.525
39.074
37.137
35.77
35.033
34.964
35.58
36.886
38.877
41.549
44.887
48.872
53.481
58.696
64.513
70.943
77.997
85.68
93.989
102.901
112.39
122.431
133.004
144.092
155.669
167.689
180.1
192.857
205.907
219.197
232.651
246.151
259.583
272.835
285.809
298.448
310.713
322.571
334.001
344.998
355.592
365.863
375.913
385.827
395.681
405.541
415.511
425.785
436.56
448.046
460.44
473.86
488.438
504.341
521.625
540.22
559.922
580.326
601.031
621.815
642.396
662.426
681.786
700.461
718.698
737.089
755.996
775.424
795.439
816.128
837.102
857.659
876.585
892.07
902.77
907.868
906.379
897.208
879.792
854.076
820.807
781.728
738.315
691.659
643.411
595.94
551.784
513.527
483.315
462.571
452.885
455.996
473.133
503.368
543.553
590.318
639.852
690.156
742.363
794.743
841.983
876.907
887.617
864.167
804.963
711.088
588.233
449.15
304.834
169.972
63.271
-6.998
-38.717
-37.973
-20.576
4.395
33.675
67.46
110.648
163.061
220.223
277.598
329.406
372.025
404.351
425.655
436.402
437.927
431.354
417.619
398.23
375.1
350.367
326.343
304.687
286.454
272.848
265.42
265.234
272.438
286.361
305.713
329.332
356.213
384.99
413.745
440.573
464.252
484.267
500.646
513.519
522.911
529.012
532.461
534.109
534.566
534.163
532.887
530.413
526.456
520.787
512.939
502.414
488.785
471.487
450.276
425.526
397.819
367.945
337.057
306.109
276.03
248.16
223.532
202.586
185.516
171.93
160.925
151.92
144.354
137.352
130.338
122.988
115.059
106.841
98.934
91.631
85.143
79.681
75.18
71.545
68.67
66.227
63.841
61.282
58.39
55.094
51.441
47.475
43.257
38.875
34.399
29.886
25.378
20.924
16.584
12.41
8.448
4.721
1.236
-2.009
-5.028
-7.837
-10.474
-12.993
-15.451
-17.899
-20.39
-22.931
-25.525
-28.287
-31.318
-34.715
-38.592
-42.887
-47.497
-52.482
-57.882
-63.548
-69.395
-75.227
-80.796
-86.321
-92.059
-97.992
-104.168
-110.733
-117.721
-125.402
-134.093
-143.474
-153.213
-163.229
-173.333
-183.411
-193.439
-203.126
-212.162
-220.736
-229.023
-237.07
-245.008
-252.809
-260.402
-267.901
-275.412
-282.832
-290.076
-297.085
-303.765
-310.136
-316.233
-322.018
-327.47
-332.597
-337.398
-341.886
-346.084
-349.98
-353.566
-356.844
-359.814
-362.488
-364.88
-367
-368.86
-370.472
-371.848
-373.004
-373.953
-374.712
-375.296
-375.721
-376.001
-376.153
-376.192
-376.134
-375.994
-375.784
-375.515
-375.197
-374.841
-374.457
-374.053
-373.638
-373.218
-372.802
-372.394
-372.001
-371.626
-371.275
-370.95
-370.653
-370.386
-370.151
-369.949
-369.779
-369.642
-369.535
-369.459
-369.411
-369.39
-369.392
-369.415
-369.456
-369.513
-369.583
-369.662
-369.747
-369.836
-369.927
-370.015
-370.101
-370.181
-370.254
-370.319
-370.373
-370.416
-370.447
-370.464
-370.467
-370.453
-370.422
-370.373
-370.306
-370.219
-370.112
-369.985
-369.836
-369.666
-369.474
-369.259
-369.02
-368.756
-368.466
-368.148
-367.801
-367.422
-367.012
-366.566
-366.084
-365.564
-365.003
-364.399
-363.748
-363.047
-362.293
-361.483
-360.612
-359.678
-358.676
-357.604
-356.458
-355.237
-353.938
-352.559
-351.098
-349.554
-347.923
-346.207
-344.403
-342.512
-340.533
-338.467
-336.316
-334.084
-331.777
-329.401
-326.96
-324.463
-321.918
-319.331
-316.711
-314.063
-311.391
-308.702
-306.003
-303.302
-300.609
-297.933
-295.284
-292.672
-290.107
-287.597
-285.148
-282.766
-280.451
-278.205
-276.033
-273.943
-271.953
-270.075
-268.318
-266.691
-265.194
-263.824
-262.575
-261.43
-260.361
-259.345
-258.358
-257.376
-256.394
-255.4
-254.382
-253.327
-252.201
-250.975
-249.639
-248.191
-246.646
-245.037
-243.394
-241.759
-240.201
-238.79
-237.607
-236.738
-236.239
-236.158
-236.534
-237.41
-238.899
-241.063
-243.831
-247.011
-250.257
-253.193
-255.55
-257.025
-257.16
-255.664
-252.532
-248.091
-243.207
-238.82
-235.575
-234.135
-235.173
-238.955
-245.207
-252.908
-260.021
-264.328
-263.723
-255.826
-238.368
-209.302
-168.515
-118.789
-63.633
-6.835
50.689
112.709
179.989
248.511
308.727
342.189
333.816
278.135
177.251
45.909
-97.189
-236.101
-355.466
-445.449
-500.534
-520.595
-511.776
-483.496
-448.541
-414.248
-383.509
-357.153
-329.561
-298.921
-266.026
-230.868
-198.569
-172.349
-152.507
-139.862
-132.536
-128.456
-127.224
-127.925
-129.506
-131.167
-131.767
-130.654
-127.997
-124.071
-119.052
-113.233
-107.004
-100.825
-95.327
-90.844
-87.285
-84.514
-82.362
-80.657
-79.291
-78.053
-76.605
-74.732
-72.337
-69.381
-65.924
-62.023
-57.707
-53.078
-48.284
-43.447
-38.679
-34.045
-29.548
-25.197
-20.996
-16.94
-13.032
-9.275
-5.674
-2.24
1.016
4.099
7.022
9.816
12.531
15.215
17.915
20.667
23.496
26.42
29.45
32.591
35.842
39.202
42.674
46.261
49.97
53.805
57.767
61.85
66.046
70.345
74.735
79.202
83.731
88.309
92.92
97.551
102.189
106.821
111.429
115.997
120.504
124.929
129.251
133.447
137.495
141.37
145.05
148.515
151.742
154.712
157.406
159.806
161.894
163.656
165.077
166.145
166.849
167.18
167.13
166.694
165.867
164.65
163.042
161.046
158.667
155.914
152.794
149.32
145.504
141.362
136.911
132.169
127.156
121.894
116.405
110.715
104.848
98.831
92.69
86.451
80.142
73.79
67.42
61.06
54.734
48.467
42.284
36.207
30.258
24.459
18.828
13.385
8.145
3.126
-1.661
-6.201
-10.486
-14.506
-18.254
-21.725
-24.916
-27.825
-30.451
-32.798
-34.867
-36.663
-38.193
-39.464
-40.484
-41.264
-41.813
-42.145
-42.27
-42.202
-41.955
-41.541
-40.974
-40.269
-39.439
-38.499
-37.461
-36.34
-35.149
-33.901
-32.608
-31.282
-29.936
-28.58
-27.224
-25.878
-24.551
-23.25
-21.983
-20.756
-19.574
-18.443
-17.365
-16.346
-15.385
-14.486
-13.65
-12.876
-12.165
-11.516
-10.927
-10.398
-9.925
-9.508
-9.143
-8.829
-8.562
-8.34
-8.159
-8.018
-7.913
-7.841
-7.799
-7.785
-7.795
-7.827
-7.88
-7.949
-8.034
-8.132
-8.243
-8.364
-8.495
-8.635
-8.784
-8.94
-9.105
-9.277
-9.458
-9.647
-9.844
-10.051
-10.268
-10.494
-10.731
-10.979
-11.237
-11.506
-11.787
-12.077
-12.377
-12.687
-13.005
-13.329
-13.657
-13.987
-14.318
-14.646
-14.968
-15.283
-15.585
-15.872
-16.139
-16.384
-16.601
-16.786
-16.933
-17.037
-17.095
-17.1
-17.048
-16.933
-16.751
-16.498
-16.171
-15.765
-15.278
-14.707
-14.049
-13.302
-12.466
-11.542
-10.528
-9.426
-8.238
-6.969
-5.626
-4.214
-2.74
-1.212
0.361
1.969
3.603
5.253
6.915
8.579
10.235
11.873
13.481
15.048
16.563
18.013
19.385
20.669
21.856
22.939
23.919
24.793
25.556
26.201
26.714
27.085
27.307
27.374
27.283
27.037
26.648
26.135
25.53
24.86
24.145
23.402
22.642
21.873
21.111
20.369
19.671
19.038
18.493
18.053
17.724
17.482
17.287
17.08
16.781
16.335
15.688
14.776
13.543
11.94
9.935
7.524
4.701
1.377
-2.513
-6.913
-11.634
-16.307
-20.528
-24.002
-26.42
-27.318
-26.353
-23.528
-19.233
-14.398
-10.011
-6.8
-5.555
-7.207
-12.499
-20.542
-28.685
-34.028
-33.653
-28.21
-21.721
-14.372
-4.294
14.276
52.467
113.641
195.667
293.193
392.88
484.335
558.554
604.85
615.786
584.372
508.168
389.928
238.631
71.648
-92.128
-230.949
-327.192
-377.981
-389.469
-376.113
-354.856
-331.467
-303.793
-269.226
-225.86
-177.821
-134.649
-100.517
-74.443
-54.449
-35.871
-17.288
-1.578
10.062
16.964
19.482
20.223
21.228
23.541
27.628
33.187
39.713
46.837
54.246
61.506
67.928
72.818
75.818
76.899
76.342
74.571
71.933
68.735
65.346
62.174
59.543
57.655
56.573
56.259
56.672
57.794
59.589
62
64.945
68.322
72.019
75.926
79.932
83.946
87.899
91.726
95.365
98.772
101.926
104.829
107.498
109.947
112.184
114.224
116.096
117.846
119.525
121.187
122.886
124.665
126.555
128.587
130.782
133.152
135.703
138.431
141.325
144.38
147.594
150.96
154.471
158.117
161.881
165.749
169.702
173.723
177.792
181.891
186.001
190.105
194.184
198.221
202.198
206.097
209.895
213.571
217.101
220.461
223.629
226.58
229.292
231.744
233.914
235.783
237.335
238.553
239.422
239.93
240.065
239.817
239.179
238.145
236.711
234.876
232.639
230.005
226.977
223.564
219.773
215.618
211.109
206.264
201.097
195.627
189.875
183.861
177.609
171.142
164.485
157.664
150.707
143.639
136.489
129.284
122.051
114.818
107.609
100.452
93.371
86.39
79.533
72.822
66.277
59.918
53.764
47.83
42.133
36.684
31.497
26.579
21.941
17.587
13.522
9.75
6.27
3.084
0.187
-2.423
-4.751
-6.805
-8.592
-10.121
-11.402
-12.448
-13.27
-13.88
-14.292
-14.521
-14.58
-14.484
-14.247
-13.884
-13.411
-12.842
-12.192
-11.474
-10.704
-9.894
-9.056
-8.205
-7.35
-6.503
-5.674
-4.871
-4.103
-3.377
-2.7
-2.077
-1.513
-1.012
-0.576
-0.208
0.092
0.322
0.482
0.574
0.599
0.559
0.455
0.29
0.068
-0.21
-0.538
-0.915
-1.335
-1.795
-2.29
-2.817
-3.371
-3.948
-4.544
-5.154
-5.775
-6.404
-7.037
-7.672
-8.306
-8.936
-9.562
-10.181
-10.792
-11.395
-11.989
-12.575
-13.153
-13.724
-14.29
-14.85
-15.408
-15.963
-16.519
-17.076
-17.636
-18.2
-18.769
-19.345
-19.928
-20.519
-21.12
-21.731
-22.354
-22.988
-23.634
-24.293
-24.963
-25.644
-26.334
-27.031
-27.733
-28.438
-29.143
-29.844
-30.538
-31.22
-31.886
-32.53
-33.147
-33.731
-34.275
-34.773
-35.218
-35.603
-35.922
-36.168
-36.337
-36.422
-36.419
-36.324
-36.133
-35.841
-35.446
-34.944
-34.335
-33.616
-32.785
-31.843
-30.79
-29.631
-28.37
-27.012
-25.564
-24.033
-22.426
-20.754
-19.026
-17.249
-15.43
-13.577
-11.7
-9.811
-7.922
-6.047
-4.195
-2.38
-0.615
1.087
2.717
4.269
5.742
7.13
8.428
9.624
10.703
11.65
12.458
13.115
13.617
13.964
14.159
14.218
14.169
14.035
13.838
13.597
13.321
13.026
12.73
12.451
12.219
12.058
11.992
12.036
12.186
12.421
12.705
12.988
13.205
13.292
13.162
12.724
11.902
10.629
8.877
6.605
3.715
0.142
-4.116
-8.912
-13.936
-18.87
-23.469
-27.457
-30.438
-32.056
-32.089
-30.78
-28.801
-26.814
-25.494
-25.451
-27.311
-31.932
-38.954
-46.287
-51.874
-53.398
-50.957
-47.767
-43.751
-36.365
-19.591
15.992
73.032
148.381
235.303
323.577
407.725
484.662
548.613
593.055
606.729
577.468
500.881
376.952
215.258
36.406
-138.929
-287.05
-388.955
-441.917
-449.778
-424.35
-383.51
-336.164
-289.229
-249.436
-215.323
-187.043
-163.274
-137.072
-107.334
-75.31
-43.106
-16.711
1.491
12.54
17.779
19.744
20.269
19.902
19.388
19.623
21.013
23.613
27.343
31.97
37.113
42.439
47.459
51.43
54.081
55.563
56.02
55.712
54.883
53.656
52.333
51.395
51.104
51.547
52.748
54.593
57.02
60.042
63.568
67.448
71.531
75.637
79.669
83.614
87.444
91.129
94.636
97.906
100.917
103.695
106.249
108.592
110.733
112.666
114.42
116.054
117.629
119.214
120.858
122.587
124.428
126.405
128.537
130.843
133.327
135.979
138.795
141.776
144.926
148.247
151.736
155.376
159.155
163.057
167.064
171.163
175.335
179.56
183.819
188.095
192.37
196.629
200.851
205.014
209.093
213.064
216.9
220.574
224.059
227.327
230.351
233.104
235.562
237.701
239.496
240.926
241.97
242.609
242.825
242.601
241.923
240.78
239.16
237.056
234.464
231.38
227.804
223.739
219.19
214.164
208.67
202.72
196.329
189.512
182.288
174.677
166.703
158.389
149.763
140.853
131.687
122.298
112.717
102.977
93.109
83.148
73.128
63.08
53.04
43.038
33.109
23.282
13.588
4.057
-5.285
-14.41
-23.295
-31.918
-40.257
-48.294
-56.013
-63.399
-70.439
-77.124
-83.446
-89.398
-94.978
-100.183
-105.014
-109.474
-113.567
-117.302
-120.685
-123.727
-126.44
-128.837
-130.932
-132.741
-134.281
-135.569
-136.623
-137.463
-138.107
-138.575
-138.886
-139.059
-139.113
-139.067
-138.938
-138.743
-138.499
-138.22
-137.92
-137.614
-137.313
-137.028
-136.769
-136.545
-136.363
-136.23
-136.15
-136.127
-136.165
-136.265
-136.427
-136.653
-136.941
-137.288
-137.694
-138.153
-138.662
-139.216
-139.811
-140.44
-141.099
-141.781
-142.48
-143.191
-143.907
-144.624
-145.335
-146.037
-146.724
-147.392
-148.038
-148.659
-149.252
-149.815
-150.347
-150.848
-151.318
-151.755
-152.163
-152.541
-152.892
-153.216
-153.517
-153.797
-154.058
-154.303
-154.536
-154.759
-154.975
-155.188
-155.401
-155.617
-155.838
-156.066
-156.304
-156.554
-156.817
-157.095
-157.388
-157.697
-158.022
-158.362
-158.716
-159.083
-159.46
-159.843
-160.229
-160.613
-160.991
-161.357
-161.706
-162.032
-162.329
-162.591
-162.811
-162.984
-163.102
-163.158
-163.147
-163.062
-162.897
-162.644
-162.299
-161.858
-161.316
-160.67
-159.917
-159.054
-158.08
-156.994
-155.795
-154.483
-153.059
-151.525
-149.883
-148.137
-146.292
-144.356
-142.338
-140.247
-138.094
-135.889
-133.646
-131.376
-129.091
-126.801
-124.516
-122.247
-120.004
-117.799
-115.644
-113.552
-111.535
-109.605
-107.773
-106.045
-104.429
-102.928
-101.541
-100.269
-99.11
-98.07
-97.161
-96.396
-95.782
-95.323
-95.02
-94.864
-94.849
-94.954
-95.15
-95.41
-95.705
-96.01
-96.319
-96.621
-96.908
-97.166
-97.361
-97.453
-97.425
-97.264
-96.972
-96.573
-96.088
-95.557
-95.055
-94.655
-94.438
-94.489
-94.853
-95.562
-96.629
-98.064
-99.945
-102.345
-105.238
-108.482
-111.806
-114.883
-117.453
-119.226
-119.776
-118.738
-115.963
-111.685
-106.619
-101.58
-97.427
-95.143
-95.648
-99.833
-107.355
-115.877
-122.58
-124.504
-121.126
-115.938
-111.519
-108.169
-101.315
-79.119
-30.341
51.177
163.169
291.448
415.24
512.95
567.881
571.459
523.543
430.913
301.827
146.952
-20.955
-188.293
-338.038
-455.169
-530.268
-561.353
-554.65
-520.348
-470.132
-413.491
-358.357
-310.304
-270.346
-237.37
-206.635
-174.043
-139.757
-106.085
-77.894
-58.527
-47.621
-43.28
-42.613
-43.227
-44.025
-44.221
-43.071
-40.247
-35.801
-30.021
-23.365
-16.407
-9.672
-3.724
0.763
3.565
4.86
4.912
4.096
2.757
1.149
-0.365
-1.342
-1.54
-0.878
0.643
2.923
5.895
9.534
13.749
18.402
23.353
28.444
33.55
38.606
43.551
48.322
52.859
57.105
61.028
64.631
67.93
70.936
73.658
76.108
78.311
80.315
82.174
83.948
85.698
87.468
89.294
91.207
93.233
95.393
97.699
100.149
102.738
105.465
108.331
111.337
114.482
117.76
121.16
124.671
128.281
131.976
135.743
139.566
143.432
147.328
151.239
155.152
159.054
162.93
166.76
170.526
174.206
177.778
181.22
184.51
187.623
190.538
193.233
195.688
197.883
199.801
201.424
202.736
203.722
204.368
204.663
204.597
204.161
203.348
202.155
200.579
198.62
196.279
193.561
190.473
187.021
183.215
179.068
174.592
169.804
164.719
159.357
153.737
147.883
141.817
135.563
129.147
122.595
115.934
109.191
102.391
95.562
88.73
81.922
75.162
68.475
61.885
55.416
49.09
42.927
36.948
31.169
25.607
20.277
15.192
10.363
5.8
1.51
-2.499
-6.225
-9.663
-12.813
-15.675
-18.253
-20.549
-22.57
-24.324
-25.819
-27.064
-28.071
-28.853
-29.421
-29.79
-29.973
-29.986
-29.843
-29.56
-29.151
-28.634
-28.022
-27.332
-26.578
-25.774
-24.934
-24.072
-23.198
-22.326
-21.465
-20.625
-19.815
-19.043
-18.317
-17.642
-17.023
-16.466
-15.973
-15.545
-15.185
-14.893
-14.667
-14.507
-14.41
-14.375
-14.397
-14.474
-14.601
-14.775
-14.989
-15.241
-15.524
-15.833
-16.164
-16.512
-16.871
-17.236
-17.605
-17.972
-18.334
-18.688
-19.031
-19.36
-19.674
-19.971
-20.25
-20.509
-20.751
-20.974
-21.18
-21.369
-21.545
-21.709
-21.863
-22.011
-22.156
-22.3
-22.448
-22.602
-22.766
-22.943
-23.136
-23.348
-23.583
-23.841
-24.126
-24.439
-24.781
-25.154
-25.558
-25.993
-26.46
-26.957
-27.482
-28.035
-28.612
-29.21
-29.825
-30.453
-31.089
-31.727
-32.362
-32.987
-33.596
-34.183
-34.739
-35.259
-35.733
-36.154
-36.515
-36.808
-37.026
-37.162
-37.208
-37.16
-37.013
-36.763
-36.405
-35.938
-35.358
-34.666
-33.859
-32.939
-31.907
-30.765
-29.514
-28.161
-26.709
-25.169
-23.548
-21.859
-20.11
-18.315
-16.488
-14.641
-12.788
-10.941
-9.109
-7.305
-5.542
-3.833
-2.191
-0.632
0.833
2.188
3.422
4.526
5.492
6.316
6.998
7.538
7.933
8.18
8.261
8.166
7.887
7.42
6.766
5.935
4.935
3.788
2.53
1.19
-0.2
-1.61
-3.031
-4.446
-5.839
-7.189
-8.454
-9.59
-10.576
-11.397
-12.058
-12.584
-13.002
-13.354
-13.713
-14.16
-14.789
-15.698
-16.946
-18.576
-20.614
-23.085
-26.114
-29.792
-34.056
-38.716
-43.431
-47.824
-51.662
-54.683
-56.368
-56.33
-54.538
-51.339
-47.645
-44.392
-42.233
-41.903
-44.35
-50.4
-59.197
-68.118
-74.281
-74.554
-69.447
-63.047
-55.488
-45.347
-27.137
10.964
72.967
158.077
261.774
369.305
468.763
548.862
596.87
606.551
572.404
493.471
374.677
223.401
53.088
-120.1
-277.527
-400.98
-480.356
-514.692
-512.651
-487.389
-449.194
-403.654
-353.343
-301.622
-252.938
-211.797
-179.46
-151.957
-125.454
-98.115
-70.674
-47.294
-30.517
-20.082
-14.909
-12.452
-10.552
-8.384
-5.147
-0.554
5.111
11.628
18.769
26.092
33.094
39.228
43.769
46.355
47.127
46.343
44.379
41.652
38.48
35.253
32.465
30.415
29.223
28.929
29.451
30.725
32.738
35.412
38.637
42.317
46.333
50.579
54.969
59.383
63.715
67.878
71.793
75.414
78.722
81.71
84.385
86.768
88.881
90.754
92.425
93.927
95.303
96.603
97.876
99.184
100.573
102.081
103.737
105.559
107.558
109.742
112.107
114.643
117.344
120.201
123.204
126.349
129.625
133.019
136.514
140.091
143.732
147.419
151.135
154.86
158.577
162.265
165.907
169.486
172.982
176.373
179.636
182.747
185.683
188.42
190.936
193.206
195.21
196.926
198.336
199.423
200.172
200.567
200.598
200.252
199.521
198.4
196.882
194.965
192.65
189.937
186.831
183.338
179.467
175.228
170.633
165.697
160.434
154.864
149.007
142.881
136.511
129.92
123.134
116.177
109.078
101.864
94.562
87.201
79.808
72.411
65.038
57.714
50.467
43.319
36.296
29.421
22.713
16.195
9.883
3.795
-2.053
-7.648
-12.978
-18.033
-22.805
-27.288
-31.476
-35.366
-38.958
-42.251
-45.248
-47.952
-50.37
-52.507
-54.372
-55.975
-57.326
-58.438
-59.322
-59.993
-60.465
-60.751
-60.868
-60.831
-60.654
-60.354
-59.946
-59.444
-58.864
-58.22
-57.526
-56.796
-56.041
-55.274
-54.506
-53.747
-53.007
-52.295
-51.617
-50.982
-50.396
-49.863
-49.387
-48.973
-48.621
-48.335
-48.115
-47.961
-47.872
-47.847
-47.885
-47.982
-48.136
-48.344
-48.603
-48.908
-49.256
-49.643
-50.065
-50.519
-51
-51.505
-52.03
-52.572
-53.129
-53.697
-54.273
-54.856
-55.443
-56.032
-56.622
-57.212
-57.8
-58.386
-58.969
-59.549
-60.126
-60.698
-61.267
-61.833
-62.394
-62.953
-63.508
-64.061
-64.612
-65.16
-65.707
-66.251
-66.793
-67.331
-67.864
-68.391
-68.909
-69.415
-69.908
-70.382
-70.836
-71.266
-71.667
-72.036
-72.369
-72.661
-72.908
-73.105
-73.247
-73.33
-73.349
-73.299
-73.178
-72.98
-72.705
-72.348
-71.909
-71.384
-70.773
-70.076
-69.29
-68.417
-67.457
-66.411
-65.282
-64.072
-62.787
-61.433
-60.018
-58.552
-57.044
-55.505
-53.946
-52.379
-50.814
-49.261
-47.727
-46.222
-44.756
-43.337
-41.977
-40.686
-39.476
-38.356
-37.335
-36.42
-35.614
-34.92
-34.336
-33.861
-33.493
-33.238
-33.109
-33.118
-33.275
-33.585
-34.048
-34.654
-35.397
-36.256
-37.199
-38.197
-39.219
-40.237
-41.24
-42.216
-43.15
-44.025
-44.804
-45.442
-45.919
-46.224
-46.363
-46.365
-46.26
-46.092
-45.934
-45.867
-45.986
-46.397
-47.165
-48.345
-49.968
-52.064
-54.757
-58.145
-62.168
-66.636
-71.192
-75.429
-79.082
-81.87
-83.282
-82.959
-80.91
-77.515
-73.744
-70.624
-68.903
-69.397
-73.056
-80.582
-91.006
-101.674
-109.672
-111.789
-108.196
-102.273
-93.561
-80.544
-58.453
-16.922
46.765
131.171
232.233
336.647
433.579
512.527
561.012
571.438
536.936
455.335
329.891
169.298
-9.115
-185.787
-337.839
-446.427
-507.204
-524.814
-514.383
-494.151
-471.577
-447.6
-418.338
-377.763
-326.675
-270.042
-212.884
-160.517
-115.987
-80.06
-53.043
-34.486
-23.153
-17.57
-16.526
-18.57
-21.896
-24.922
-26.189
-24.892
-21.19
-15.566
-8.47
-0.542
7.416
14.577
20.023
23.336
24.68
24.36
22.803
20.435
17.623
14.842
12.613
11.231
10.792
11.296
12.636
14.744
17.585
21.06
25.048
29.424
34.053
38.832
43.666
48.462
53.142
57.625
61.844
65.769
69.387
72.698
75.72
78.465
80.948
83.204
85.264
87.174
88.987
90.754
92.536
94.381
96.326
98.403
100.635
103.034
105.606
108.35
111.257
114.321
117.536
120.895
124.392
128.017
131.755
135.591
139.508
143.485
147.506
151.553
155.609
159.657
163.679
167.657
171.576
175.418
179.162
182.785
186.264
189.575
192.696
195.603
198.272
200.683
202.813
204.643
206.155
207.335
208.164
208.631
208.723
208.43
207.744
206.659
205.17
203.277
200.978
198.277
195.178
191.688
187.815
183.57
178.966
174.015
168.735
163.144
157.261
151.108
144.706
138.08
131.255
124.258
117.115
109.853
102.502
95.088
87.64
80.186
72.752
65.367
58.054
50.841
43.75
36.805
30.027
23.437
17.053
10.891
4.969
-0.701
-6.107
-11.238
-16.085
-20.641
-24.902
-28.863
-32.523
-35.882
-38.941
-41.704
-44.176
-46.362
-48.271
-49.911
-51.293
-52.427
-53.327
-54.004
-54.473
-54.748
-54.845
-54.778
-54.563
-54.215
-53.749
-53.182
-52.527
-51.799
-51.011
-50.178
-49.312
-48.425
-47.528
-46.632
-45.747
-44.882
-44.045
-43.245
-42.486
-41.776
-41.12
-40.521
-39.983
-39.509
-39.1
-38.759
-38.486
-38.281
-38.143
-38.071
-38.065
-38.122
-38.24
-38.415
-38.647
-38.931
-39.264
-39.645
-40.069
-40.534
-41.038
-41.577
-42.151
-42.756
-43.392
-44.055
-44.745
-45.459
-46.196
-46.954
-47.732
-48.529
-49.343
-50.173
-51.018
-51.876
-52.747
-53.628
-54.519
-55.417
-56.32
-57.225
-58.13
-59.032
-59.928
-60.816
-61.691
-62.549
-63.389
-64.205
-64.992
-65.745
-66.461
-67.131
-67.752
-68.318
-68.821
-69.257
-69.619
-69.904
-70.106
-70.222
-70.247
-70.176
-70.009
-69.74
-69.368
-68.892
-68.31
-67.622
-66.828
-65.932
-64.936
-63.848
-62.673
-61.419
-60.093
-58.706
-57.267
-55.786
-54.269
-52.725
-51.162
-49.59
-48.021
-46.467
-44.939
-43.451
-42.015
-40.644
-39.347
-38.136
-37.014
-35.985
-35.052
-34.221
-33.5
-32.909
-32.461
-32.166
-32.033
-32.064
-32.255
-32.602
-33.087
-33.678
-34.353
-35.082
-35.842
-36.625
-37.418
-38.205
-38.971
-39.68
-40.296
-40.802
-41.193
-41.478
-41.686
-41.846
-42.003
-42.228
-42.603
-43.223
-44.177
-45.512
-47.266
-49.452
-52.097
-55.325
-59.203
-63.648
-68.499
-73.468
-78.237
-82.634
-86.404
-89.013
-90.098
-89.647
-87.843
-85.319
-82.893
-81.053
-80.369
-81.961
-85.932
-90.762
-95.029
-96.709
-95.107
-93.369
-93.221
-92.665
-87.424
-69.017
-29.62
31.14
110.323
202.024
296.619
386.604
462.54
512.372
525.856
494.51
416.92
298.336
150.348
-9.318
-163.516
-293.873
-386.566
-439.361
-456.373
-450.211
-436.029
-420.192
-403.83
-383.774
-354.824
-317.482
-275.498
-232.558
-192.344
-156.481
-125.302
-99.198
-78.25
-62.088
-50.015
-41.539
-36.386
-33.969
-33.383
-33.56
-33.317
-32.127
-30.1
-27.211
-23.436
-18.972
-14.131
-9.5
-5.848
-3.437
-2.099
-1.687
-1.967
-2.719
-3.778
-4.753
-5.164
-4.771
-3.499
-1.374
1.472
4.971
9.095
13.719
18.685
23.828
28.977
34.049
39.015
43.831
48.457
52.832
56.898
60.646
64.094
67.254
70.145
72.777
75.158
77.334
79.362
81.3
83.216
85.152
87.136
89.199
91.365
93.656
96.088
98.667
101.384
104.238
107.231
110.366
113.645
117.061
120.601
124.254
128.007
131.846
135.759
139.73
143.744
147.784
151.839
155.892
159.929
163.933
167.885
171.763
175.544
179.206
182.724
186.074
189.232
192.174
194.877
197.32
199.48
201.338
202.875
204.073
204.916
205.388
205.478
205.172
204.463
203.344
201.809
199.856
197.485
194.697
191.498
187.895
183.896
179.513
174.758
169.648
164.198
158.43
152.363
146.021
139.427
132.607
125.588
118.397
111.063
103.615
96.082
88.492
80.876
73.262
65.679
58.154
50.716
43.389
36.199
29.171
22.326
15.686
9.27
3.095
-2.821
-8.465
-13.825
-18.891
-23.654
-28.108
-32.249
-36.076
-39.586
-42.782
-45.668
-48.246
-50.525
-52.511
-54.213
-55.643
-56.811
-57.729
-58.412
-58.874
-59.129
-59.192
-59.08
-58.808
-58.392
-57.848
-57.192
-56.44
-55.608
-54.71
-53.762
-52.776
-51.767
-50.748
-49.729
-48.722
-47.736
-46.78
-45.863
-44.99
-44.168
-43.403
-42.698
-42.058
-41.485
-40.981
-40.549
-40.189
-39.902
-39.688
-39.547
-39.477
-39.477
-39.546
-39.682
-39.882
-40.145
-40.469
-40.85
-41.285
-41.772
-42.308
-42.889
-43.511
-44.173
-44.869
-45.598
-46.357
-47.143
-47.953
-48.786
-49.639
-50.511
-51.398
-52.299
-53.212
-54.134
-55.061
-55.991
-56.921
-57.846
-58.765
-59.672
-60.563
-61.435
-62.284
-63.104
-63.892
-64.64
-65.346
-66.004
-66.609
-67.156
-67.642
-68.062
-68.411
-68.688
-68.889
-69.012
-69.053
-69.01
-68.881
-68.664
-68.358
-67.962
-67.475
-66.898
-66.231
-65.478
-64.646
-63.738
-62.76
-61.72
-60.625
-59.485
-58.308
-57.101
-55.87
-54.624
-53.37
-52.119
-50.881
-49.667
-48.487
-47.352
-46.274
-45.262
-44.326
-43.469
-42.692
-41.998
-41.392
-40.88
-40.475
-40.189
-40.026
-39.996
-40.102
-40.34
-40.702
-41.169
-41.706
-42.288
-42.891
-43.491
-44.075
-44.627
-45.13
-45.569
-45.924
-46.174
-46.302
-46.295
-46.15
-45.896
-45.577
-45.253
-45.014
-44.927
-45.068
-45.522
-46.365
-47.66
-49.456
-51.77
-54.613
-58.062
-62.154
-66.815
-71.868
-76.988
-81.808
-86.053
-89.398
-91.364
-91.617
-90.112
-87.102
-83.292
-79.426
-76.071
-73.941
-73.89
-76.568
-81.231
-85.811
-88.122
-85.657
-78.662
-69.887
-58.653
-43.876
-22.116
14.95
69.244
140.071
225.552
315.202
399.564
468.588
509.201
513.513
476.785
399.097
285.968
147.063
-3.34
-149.805
-274.042
-361.39
-408.227
-418.309
-404.942
-384.172
-363.17
-343.558
-322.243
-293.727
-258.043
-218.63
-178.956
-142.693
-111.614
-85.667
-64.714
-48.634
-36.904
-28.777
-23.828
-21.567
-21.152
-21.964
-23.276
-24.132
-24.219
-23.599
-22.147
-19.948
-17.277
-14.281
-11.36
-9.057
-7.48
-6.583
-6.346
-6.589
-7.145
-7.871
-8.431
-8.458
-7.796
-6.383
-4.243
-1.477
1.848
5.653
9.776
14.024
18.243
22.347
26.312
30.144
33.831
37.343
40.643
43.721
46.589
49.255
51.726
54.005
56.105
58.063
59.944
61.818
63.737
65.736
67.835
70.05
72.396
74.887
77.529
80.315
83.24
86.303
89.508
92.858
96.35
99.975
103.717
107.56
111.488
115.488
119.543
123.637
127.75
131.869
135.977
140.062
144.107
148.091
151.996
155.797
159.475
163.006
166.367
169.535
172.489
175.206
177.668
179.856
181.752
183.341
184.605
185.533
186.113
186.333
186.184
185.66
184.754
183.464
181.789
179.729
177.288
174.47
171.283
167.735
163.838
159.605
155.049
150.187
145.036
139.616
133.947
128.052
121.954
115.677
109.248
102.691
96.033
89.3
82.52
75.717
68.917
62.146
55.429
48.789
42.25
35.832
29.558
23.447
17.517
11.785
6.266
0.973
-4.079
-8.882
-13.426
-17.702
-21.706
-25.433
-28.881
-32.047
-34.934
-37.542
-39.876
-41.941
-43.744
-45.292
-46.595
-47.662
-48.505
-49.136
-49.567
-49.811
-49.882
-49.795
-49.562
-49.199
-48.72
-48.138
-47.468
-46.721
-45.912
-45.051
-44.152
-43.225
-42.28
-41.328
-40.378
-39.439
-38.519
-37.625
-36.764
-35.941
-35.163
-34.432
-33.752
-33.127
-32.559
-32.048
-31.598
-31.207
-30.876
-30.603
-30.389
-30.231
-30.128
-30.077
-30.077
-30.125
-30.219
-30.357
-30.538
-30.759
-31.019
-31.316
-31.65
-32.018
-32.419
-32.853
-33.317
-33.81
-34.332
-34.882
-35.458
-36.06
-36.686
-37.335
-38.005
-38.695
-39.402
-40.123
-40.857
-41.601
-42.351
-43.105
-43.86
-44.613
-45.362
-46.101
-46.828
-47.537
-48.225
-48.886
-49.514
-50.105
-50.653
-51.152
-51.598
-51.984
-52.307
-52.561
-52.742
-52.846
-52.868
-52.805
-52.655
-52.414
-52.08
-51.653
-51.134
-50.525
-49.83
-49.053
-48.201
-47.279
-46.294
-45.255
-44.167
-43.038
-41.872
-40.678
-39.464
-38.238
-37.011
-35.795
-34.599
-33.438
-32.321
-31.26
-30.265
-29.341
-28.493
-27.727
-27.048
-26.464
-25.992
-25.643
-25.425
-25.347
-25.411
-25.611
-25.94
-26.382
-26.907
-27.496
-28.123
-28.767
-29.417
-30.062
-30.689
-31.288
-31.835
-32.302
-32.681
-32.966
-33.16
-33.298
-33.409
-33.543
-33.775
-34.161
-34.764
-35.653
-36.882
-38.495
-40.521
-42.946
-45.773
-49.075
-52.848
-57.003
-61.357
-65.561
-69.315
-72.441
-74.679
-75.629
-75.051
-72.91
-69.469
-65.465
-61.514
-58.004
-55.569
-54.993
-56.887
-60.54
-63.592
-63.269
-57.093
-46.661
-37.009
-30.39
-27.126
-20.492
3.318
52.364
129.764
230.058
335.846
429.839
496.693
524.09
507.734
448.952
352.336
227.143
86.576
-55.484
-183.212
-282.089
-344.421
-369.745
-366.15
-346.668
-322.453
-298.894
-275.632
-249.451
-217.868
-182.174
-145.586
-111.602
-83.352
-61.813
-46.813
-37.603
-32.726
-30.886
-31.282
-33.073
-35.279
-37.03
-37.427
-36.094
-33.344
-29.598
-25.174
-20.366
-15.476
-10.886
-7.117
-4.43
-2.724
-1.789
-1.393
-1.35
-1.551
-1.817
-1.851
-1.433
-0.449
1.133
3.258
5.862
8.905
12.304
15.922
19.639
23.352
26.979
30.497
33.893
37.159
40.292
43.292
46.145
48.835
51.356
53.702
55.879
57.904
59.807
61.633
63.43
65.245
67.115
69.066
71.116
73.274
75.546
77.93
80.429
83.044
85.78
88.639
91.626
94.739
97.973
101.319
104.764
108.296
111.9
115.56
119.263
122.993
126.735
130.477
134.204
137.9
141.546
145.121
148.607
151.98
155.219
158.301
161.203
163.903
166.38
168.614
170.585
172.276
173.669
174.747
175.496
175.903
175.956
175.645
174.963
173.903
172.461
170.635
168.426
165.836
162.869
159.533
155.837
151.791
147.409
142.705
137.695
132.397
126.831
121.017
114.978
108.737
102.319
95.749
89.054
82.259
75.391
68.477
61.544
54.616
47.721
40.882
34.124
27.47
20.943
14.563
8.35
2.323
-3.501
-9.108
-14.483
-19.615
-24.493
-29.108
-33.453
-37.523
-41.315
-44.827
-48.057
-51.007
-53.681
-56.081
-58.213
-60.083
-61.7
-63.071
-64.207
-65.117
-65.814
-66.308
-66.612
-66.738
-66.701
-66.511
-66.183
-65.731
-65.165
-64.501
-63.749
-62.922
-62.032
-61.09
-60.107
-59.094
-58.059
-57.012
-55.962
-54.915
-53.88
-52.862
-51.868
-50.902
-49.969
-49.074
-48.219
-47.409
-46.647
-45.935
-45.274
-44.667
-44.116
-43.621
-43.182
-42.802
-42.479
-42.215
-42.009
-41.862
-41.774
-41.743
-41.772
-41.857
-42.001
-42.201
-42.456
-42.766
-43.13
-43.547
-44.015
-44.534
-45.102
-45.718
-46.38
-47.088
-47.838
-48.628
-49.454
-50.314
-51.203
-52.117
-53.051
-54
-54.96
-55.925
-56.89
-57.849
-58.795
-59.723
-60.626
-61.496
-62.327
-63.112
-63.843
-64.514
-65.118
-65.648
-66.1
-66.469
-66.749
-66.936
-67.024
-67.011
-66.891
-66.664
-66.326
-65.876
-65.312
-64.636
-63.852
-62.965
-61.981
-60.905
-59.746
-58.51
-57.207
-55.846
-54.433
-52.974
-51.477
-49.952
-48.411
-46.866
-45.327
-43.808
-42.322
-40.881
-39.499
-38.185
-36.947
-35.788
-34.716
-33.738
-32.868
-32.123
-31.516
-31.055
-30.748
-30.598
-30.601
-30.75
-31.024
-31.393
-31.83
-32.31
-32.808
-33.312
-33.8
-34.258
-34.669
-35.007
-35.251
-35.392
-35.425
-35.37
-35.255
-35.113
-34.992
-34.964
-35.102
-35.503
-36.255
-37.427
-39.091
-41.274
-44.008
-47.358
-51.32
-55.813
-60.676
-65.624
-70.365
-74.735
-78.533
-81.442
-83.238
-83.848
-83.408
-82.368
-81.228
-80.155
-79.133
-78.499
-78.627
-79.482
-80.77
-80.743
-76.508
-66.608
-50.868
-31.351
-11.811
6.536
25.64
51.575
91.102
146.773
216.153
289.68
356.22
407.088
435.575
438.209
411.685
352.67
259.887
139.107
4.045
-127.135
-233.699
-304.409
-339.57
-346.693
-340.438
-330.081
-317.229
-300.413
-274.73
-239.064
-197.051
-153.327
-113.095
-79.746
-54.44
-37.248
-27.301
-23.438
-24.316
-28.293
-33.851
-39.327
-43.139
-44.525
-43.327
-39.795
-34.552
-28.281
-21.536
-15.058
-9.634
-5.576
-2.94
-1.58
-1.12
-1.263
-1.81
-2.461
-2.888
-2.908
-2.391
-1.277
0.378
2.549
5.214
8.294
11.691
15.287
18.971
22.658
26.289
29.823
33.235
36.511
39.645
42.642
45.493
48.182
50.705
53.054
55.231
57.254
59.149
60.961
62.737
64.523
66.356
68.264
70.265
72.372
74.593
76.925
79.37
81.93
84.607
87.407
90.334
93.387
96.563
99.853
103.246
106.728
110.286
113.905
117.57
121.266
124.977
128.692
132.394
136.068
139.696
143.257
146.73
150.094
153.326
156.403
159.302
162.001
164.478
166.714
168.688
170.382
171.779
172.861
173.614
174.025
174.081
173.771
173.088
172.024
170.575
168.739
166.517
163.91
160.923
157.563
153.84
149.765
145.351
140.614
135.57
130.238
124.637
118.791
112.721
106.453
100.011
93.422
86.714
79.912
73.044
66.137
59.219
52.316
45.453
38.657
31.951
25.361
18.908
12.614
6.499
0.583
-5.118
-10.588
-15.814
-20.783
-25.487
-29.916
-34.065
-37.928
-41.504
-44.792
-47.791
-50.506
-52.939
-55.097
-56.987
-58.617
-59.995
-61.133
-62.042
-62.734
-63.221
-63.516
-63.632
-63.583
-63.383
-63.047
-62.586
-62.016
-61.35
-60.601
-59.782
-58.905
-57.982
-57.024
-56.04
-55.042
-54.036
-53.033
-52.038
-51.058
-50.099
-49.165
-48.261
-47.389
-46.551
-45.75
-44.988
-44.263
-43.578
-42.931
-42.324
-41.754
-41.221
-40.724
-40.263
-39.837
-39.443
-39.082
-38.753
-38.455
-38.187
-37.95
-37.742
-37.564
-37.417
-37.3
-37.214
-37.16
-37.139
-37.152
-37.2
-37.285
-37.409
-37.572
-37.778
-38.027
-38.322
-38.663
-39.051
-39.488
-39.974
-40.51
-41.096
-41.731
-42.415
-43.146
-43.924
-44.746
-45.608
-46.509
-47.444
-48.408
-49.395
-50.401
-51.419
-52.443
-53.466
-54.481
-55.48
-56.457
-57.402
-58.309
-59.168
-59.971
-60.711
-61.379
-61.968
-62.469
-62.877
-63.184
-63.387
-63.48
-63.459
-63.32
-63.062
-62.681
-62.177
-61.549
-60.798
-59.925
-58.933
-57.827
-56.613
-55.301
-53.898
-52.416
-50.865
-49.258
-47.606
-45.922
-44.215
-42.494
-40.772
-39.06
-37.371
-35.72
-34.118
-32.579
-31.115
-29.739
-28.46
-27.288
-26.228
-25.28
-24.451
-23.747
-23.178
-22.762
-22.511
-22.431
-22.527
-22.799
-23.242
-23.85
-24.603
-25.471
-26.428
-27.447
-28.502
-29.58
-30.66
-31.718
-32.729
-33.656
-34.46
-35.13
-35.668
-36.079
-36.384
-36.601
-36.749
-36.899
-37.134
-37.54
-38.211
-39.218
-40.609
-42.456
-44.869
-47.904
-51.543
-55.631
-59.848
-63.868
-67.445
-70.334
-72.226
-72.905
-72.322
-70.758
-68.926
-67.592
-67.355
-68.632
-71.759
-77.015
-84.242
-92.512
-100.372
-105.205
-104.479
-97.267
-81.962
-58.83
-28.859
9.914
56.617
110.954
172.915
237.166
300.951
361.216
412.541
452.052
473.659
468.862
431.497
357.965
248.449
111.578
-36.652
-178.248
-292.582
-365.837
-398.311
-398.785
-381.779
-360.122
-336.415
-306.561
-268.001
-221.845
-174.099
-134.309
-106.086
-87.109
-74.148
-62.169
-49.729
-39.632
-33.087
-31.088
-33.213
-36.548
-39.253
-40.335
-39.299
-36.728
-33.111
-28.533
-23.275
-17.771
-12.542
-8.238
-5.158
-3.191
-2.13
-1.744
-1.852
-2.312
-2.886
-3.228
-3.095
-2.362
-1.009
0.894
3.305
6.198
9.512
13.134
16.92
20.74
24.506
28.183
31.757
35.22
38.551
41.733
44.756
47.602
50.272
52.766
55.077
57.21
59.183
61.028
62.802
64.562
66.345
68.182
70.089
72.078
74.161
76.345
78.627
81.006
83.48
86.05
88.724
91.503
94.385
97.363
100.425
103.557
106.748
109.986
113.258
116.549
119.848
123.143
126.423
129.678
132.895
136.057
139.147
142.149
145.043
147.812
150.435
152.893
155.168
157.242
159.1
160.725
162.102
163.217
164.056
164.608
164.862
164.807
164.436
163.742
162.718
161.362
159.671
157.644
155.284
152.591
149.571
146.231
142.576
138.617
134.363
129.827
125.02
119.956
114.652
109.124
103.39
97.469
91.381
85.146
78.785
72.319
65.772
59.163
52.513
45.844
39.176
32.529
25.927
19.391
12.939
6.59
0.363
-5.724
-11.653
-17.407
-22.975
-28.343
-33.503
-38.444
-43.153
-47.619
-51.835
-55.798
-59.507
-62.963
-66.162
-69.1
-71.775
-74.188
-76.343
-78.244
-79.887
-81.264
-82.368
-83.197
-83.753
-84.044
-84.073
-83.826
-83.279
-82.408
-81.206
-79.699
-77.918
-75.886
-73.604
-71.049
-68.239
-65.253
-62.14
-58.881
-55.347
-51.374
-46.926
-42.151
-37.244
-32.303
-27.406
-22.71
-18.661
-15.856
-14.647
-15.03
-16.66
-19.139
-22.156
-25.294
-27.692
-28.306
-26.33
-21.286
-13.387
-3.203
8.753
21.732
34.515
45.867
54.685
59.981
61.558
59.742
54.91
47.841
39.667
31.316
23.66
17.612
13.509
11.327
10.948
11.855
13.349
14.999
16.42
17.204
17.212
16.402
14.77
12.541
9.99
7.248
4.401
1.51
-1.44
-4.432
-7.436
-10.477
-13.584
-16.753
-19.968
-23.185
-26.348
-29.427
-32.403
-35.262
-37.996
-40.589
-43.023
-45.289
-47.376
-49.281
-50.997
-52.52
-53.844
-54.968
-55.895
-56.627
-57.17
-57.523
-57.69
-57.67
-57.465
-57.076
-56.51
-55.773
-54.875
-53.826
-52.639
-51.326
-49.901
-48.378
-46.772
-45.098
-43.369
-41.598
-39.798
-37.983
-36.169
-34.372
-32.608
-30.889
-29.232
-27.652
-26.164
-24.778
-23.506
-22.349
-21.314
-20.409
-19.64
-19.022
-18.564
-18.272
-18.152
-18.207
-18.434
-18.825
-19.363
-20.017
-20.762
-21.579
-22.446
-23.35
-24.273
-25.195
-26.098
-26.963
-27.768
-28.496
-29.131
-29.664
-30.119
-30.534
-30.96
-31.471
-32.119
-32.952
-34.041
-35.446
-37.229
-39.438
-42.076
-45.151
-48.725
-52.839
-57.459
-62.437
-67.455
-72.164
-76.278
-79.479
-81.399
-81.716
-80.258
-77.261
-73.351
-69.229
-65.682
-63.505
-63.41
-66.218
-71.635
-77.62
-81.999
-82.333
-77.865
-71.533
-64.767
-56.664
-43.989
-17.701
29.577
99.731
191.18
294.867
398.129
488.542
552.712
579.274
560.522
494.467
385.19
242.428
81.218
-82.055
-230.245
-347.341
-422.889
-455.457
-451.953
-425.042
-390.303
-355.848
-324.032
-294.61
-261.549
-223.667
-182.898
-140.496
-102.401
-72.115
-50.02
-36.634
-29.689
-26.795
-27.153
-29.504
-32.488
-35.01
-35.796
-34.255
-30.684
-25.568
-19.305
-12.354
-5.333
1.057
6.055
9.285
10.902
11.247
10.649
9.388
7.702
5.888
4.36
3.436
3.227
3.742
4.911
6.663
8.99
11.865
15.187
18.837
22.684
26.582
30.464
34.296
38.035
41.649
45.096
48.322
51.314
54.088
56.651
59.011
61.173
63.132
64.915
66.575
68.17
69.762
71.396
73.098
74.893
76.804
78.849
81.044
83.39
85.877
88.5
91.262
94.162
97.205
100.385
103.687
107.099
110.605
114.191
117.844
121.546
125.28
129.029
132.78
136.517
140.228
143.895
147.499
151.019
154.435
157.724
160.865
163.835
166.611
169.17
171.494
173.561
175.354
176.855
178.047
178.916
179.448
179.632
179.457
178.915
177.999
176.705
175.032
172.978
170.546
167.74
164.566
161.032
157.149
152.929
148.386
143.535
138.392
132.979
127.313
121.419
115.318
109.034
102.594
96.023
89.348
82.595
75.792
68.966
62.142
55.346
48.606
41.945
35.387
28.955
22.671
16.554
10.625
4.901
-0.604
-5.874
-10.898
-15.665
-20.166
-24.395
-28.347
-32.017
-35.406
-38.512
-41.338
-43.886
-46.163
-48.174
-49.927
-51.431
-52.697
-53.735
-54.559
-55.18
-55.614
-55.874
-55.974
-55.931
-55.758
-55.473
-55.088
-54.621
-54.084
-53.493
-52.86
-52.198
-51.52
-50.836
-50.156
-49.491
-48.847
-48.233
-47.654
-47.116
-46.623
-46.179
-45.786
-45.447
-45.16
-44.928
-44.75
-44.623
-44.547
-44.518
-44.535
-44.593
-44.689
-44.82
-44.98
-45.165
-45.371
-45.593
-45.827
-46.068
-46.311
-46.554
-46.791
-47.022
-47.241
-47.449
-47.642
-47.82
-47.982
-48.129
-48.26
-48.377
-48.481
-48.574
-48.658
-48.736
-48.81
-48.883
-48.958
-49.038
-49.126
-49.225
-49.336
-49.464
-49.61
-49.777
-49.967
-50.183
-50.425
-50.695
-50.995
-51.324
-51.684
-52.073
-52.489
-52.932
-53.399
-53.887
-54.391
-54.909
-55.436
-55.966
-56.494
-57.013
-57.518
-58.002
-58.457
-58.876
-59.252
-59.578
-59.847
-60.053
-60.188
-60.248
-60.229
-60.124
-59.93
-59.645
-59.263
-58.785
-58.208
-57.531
-56.754
-55.879
-54.907
-53.844
-52.694
-51.466
-50.166
-48.804
-47.39
-45.933
-44.446
-42.938
-41.417
-39.893
-38.376
-36.879
-35.413
-33.993
-32.629
-31.334
-30.122
-29.003
-27.985
-27.075
-26.274
-25.584
-25.008
-24.555
-24.236
-24.063
-24.042
-24.179
-24.478
-24.933
-25.533
-26.262
-27.087
-27.983
-28.927
-29.899
-30.886
-31.877
-32.853
-33.795
-34.676
-35.464
-36.14
-36.689
-37.104
-37.413
-37.656
-37.888
-38.186
-38.607
-39.204
-40.05
-41.202
-42.706
-44.61
-46.916
-49.662
-52.986
-56.929
-61.393
-66.188
-70.923
-75.2
-78.786
-81.303
-82.183
-81.166
-78.354
-74.122
-69.417
-65.255
-62.266
-61.349
-63.808
-69.419
-76.372
-82.97
-86.441
-86.62
-87.101
-87.828
-86.042
-75.379
-45.255
8.62
83.681
173.266
267.119
358.072
440.976
508.749
552.878
561.531
524.797
440.465
312.021
152.701
-17.434
-179.194
-312.213
-403.405
-453.148
-468.054
-460.68
-444.144
-421.204
-390.203
-350.962
-302.075
-248.452
-198.296
-153.406
-115.89
-86.113
-61.41
-43.24
-32.276
-27.338
-28.047
-32.014
-36.557
-40.196
-41.516
-40.04
-36.108
-30.117
-22.652
-14.392
-6.051
1.551
7.636
11.832
14.226
15.162
15.039
14.184
12.874
11.428
10.251
9.665
9.802
10.667
12.185
14.283
16.939
20.13
23.754
27.686
31.787
35.903
39.959
43.921
47.746
51.401
54.849
58.035
60.946
63.602
66.012
68.185
70.126
71.833
73.333
74.684
75.95
77.197
78.476
79.815
81.245
82.791
84.475
86.315
88.313
90.461
92.756
95.203
97.804
100.567
103.486
106.551
109.749
113.068
116.493
120.012
123.609
127.265
130.966
134.697
138.444
142.192
145.926
149.625
153.269
156.836
160.302
163.645
166.84
169.864
172.692
175.303
177.675
179.789
181.624
183.164
184.39
185.289
185.847
186.05
185.887
185.351
184.435
183.133
181.442
179.363
176.896
174.047
170.82
167.224
163.27
158.97
154.336
149.385
144.134
138.603
132.812
126.784
120.542
114.112
107.519
100.79
93.953
87.034
80.06
73.059
66.057
59.08
52.155
45.306
38.558
31.934
25.456
19.146
13.023
7.106
1.41
-4.048
-9.256
-14.201
-18.875
-23.269
-27.376
-31.193
-34.718
-37.949
-40.887
-43.536
-45.901
-47.986
-49.801
-51.354
-52.655
-53.717
-54.551
-55.171
-55.59
-55.824
-55.886
-55.793
-55.559
-55.201
-54.732
-54.17
-53.528
-52.822
-52.066
-51.275
-50.46
-49.636
-48.813
-48.003
-47.217
-46.462
-45.748
-45.083
-44.471
-43.919
-43.431
-43.01
-42.658
-42.378
-42.17
-42.032
-41.965
-41.967
-42.035
-42.167
-42.36
-42.61
-42.915
-43.271
-43.673
-44.119
-44.604
-45.124
-45.677
-46.258
-46.863
-47.49
-48.136
-48.797
-49.47
-50.154
-50.846
-51.544
-52.247
-52.953
-53.661
-54.371
-55.081
-55.791
-56.502
-57.212
-57.924
-58.636
-59.35
-60.065
-60.783
-61.503
-62.225
-62.949
-63.673
-64.396
-65.116
-65.832
-66.54
-67.239
-67.923
-68.59
-69.236
-69.856
-70.446
-71.001
-71.515
-71.983
-72.4
-72.76
-73.058
-73.288
-73.445
-73.524
-73.52
-73.429
-73.246
-72.969
-72.592
-72.113
-71.531
-70.843
-70.048
-69.145
-68.135
-67.021
-65.808
-64.501
-63.105
-61.627
-60.077
-58.464
-56.797
-55.086
-53.341
-51.569
-49.781
-47.989
-46.205
-44.444
-42.716
-41.034
-39.411
-37.859
-36.39
-35.012
-33.729
-32.545
-31.466
-30.502
-29.668
-28.977
-28.436
-28.052
-27.829
-27.767
-27.862
-28.098
-28.451
-28.894
-29.409
-29.98
-30.597
-31.246
-31.911
-32.568
-33.187
-33.746
-34.227
-34.611
-34.893
-35.09
-35.23
-35.376
-35.608
-35.988
-36.583
-37.458
-38.671
-40.297
-42.397
-44.999
-48.144
-51.893
-56.271
-61.267
-66.734
-72.332
-77.712
-82.563
-86.535
-89.279
-90.497
-89.992
-87.969
-85.157
-82.335
-80.098
-79.084
-79.898
-83.055
-89.088
-96.763
-102.781
-104.196
-98.304
-86.075
-72.422
-59.326
-46.627
-28.06
8.772
70.732
160.044
269.74
382.462
481.84
551.361
580.658
567.457
511.304
417.411
289.999
134.516
-35.928
-206.363
-354.92
-460.616
-516.559
-525.617
-502.987
-469.129
-434.327
-401.696
-368.332
-327.627
-279.369
-227.53
-176.859
-132.988
-98.439
-73.05
-56.001
-45.72
-40.603
-39.334
-40.481
-42.412
-43.646
-43.035
-40.082
-34.943
-28.081
-20.066
-11.502
-3.081
4.419
10.245
14.058
15.978
16.335
15.556
14.012
12.006
9.92
8.211
7.182
6.957
7.55
8.878
10.878
13.531
16.785
20.537
24.668
29.049
33.546
38.058
42.507
46.823
50.944
54.811
58.377
61.622
64.552
67.185
69.534
71.609
73.424
75.007
76.404
77.672
78.869
80.058
81.284
82.586
83.997
85.547
87.255
89.131
91.176
93.384
95.754
98.289
100.987
103.849
106.865
110.027
113.322
116.736
120.255
123.862
127.541
131.276
135.05
138.847
142.652
146.448
150.217
153.938
157.589
161.147
164.588
167.886
171.018
173.959
176.684
179.171
181.398
183.345
184.992
186.322
187.318
187.966
188.252
188.165
187.696
186.838
185.585
183.935
181.886
179.441
176.604
173.381
169.779
165.811
161.486
156.821
151.831
146.533
140.948
135.096
129.001
122.686
116.177
109.499
102.68
95.746
88.727
81.649
74.539
67.426
60.335
53.293
46.325
39.455
32.708
26.104
19.665
13.411
7.359
1.525
-4.075
-9.429
-14.526
-19.355
-23.911
-28.186
-32.176
-35.879
-39.294
-42.422
-45.265
-47.828
-50.115
-52.134
-53.892
-55.399
-56.666
-57.702
-58.521
-59.133
-59.553
-59.794
-59.869
-59.793
-59.579
-59.241
-58.793
-58.248
-57.621
-56.923
-56.168
-55.366
-54.528
-53.666
-52.789
-51.906
-51.025
-50.155
-49.301
-48.47
-47.667
-46.897
-46.164
-45.471
-44.821
-44.216
-43.656
-43.144
-42.68
-42.264
-41.897
-41.578
-41.306
-41.083
-40.906
-40.775
-40.689
-40.648
-40.65
-40.694
-40.78
-40.907
-41.073
-41.28
-41.525
-41.81
-42.132
-42.493
-42.892
-43.328
-43.801
-44.311
-44.858
-45.44
-46.057
-46.709
-47.396
-48.116
-48.868
-49.651
-50.462
-51.3
-52.161
-53.042
-53.938
-54.845
-55.758
-56.673
-57.583
-58.483
-59.368
-60.231
-61.066
-61.865
-62.622
-63.33
-63.981
-64.569
-65.086
-65.525
-65.88
-66.146
-66.317
-66.388
-66.354
-66.212
-65.958
-65.588
-65.101
-64.495
-63.77
-62.925
-61.962
-60.885
-59.698
-58.408
-57.025
-55.556
-54.011
-52.402
-50.74
-49.037
-47.303
-45.547
-43.781
-42.015
-40.261
-38.533
-36.843
-35.206
-33.636
-32.147
-30.749
-29.453
-28.266
-27.19
-26.231
-25.39
-24.675
-24.101
-23.682
-23.425
-23.34
-23.428
-23.682
-24.093
-24.641
-25.292
-26.019
-26.793
-27.587
-28.391
-29.19
-29.974
-30.733
-31.439
-32.057
-32.573
-32.974
-33.26
-33.468
-33.632
-33.808
-34.086
-34.528
-35.207
-36.208
-37.59
-39.409
-41.7
-44.447
-47.681
-51.519
-55.993
-61.023
-66.374
-71.592
-76.265
-80.11
-82.738
-83.644
-82.5
-79.278
-74.491
-69.241
-64.556
-61.233
-60.157
-62.191
-67.873
-76.293
-84.788
-90.225
-90.217
-85.274
-77.467
-66.253
-48.359
-17.491
32.548
101.765
185.314
275.262
362.681
440.928
503.042
541.306
546.866
510.861
430.058
305.453
145.927
-30.465
-203.903
-351.092
-454.364
-509.802
-521.55
-503.84
-472.094
-434.7
-397.238
-360.074
-322.655
-285.532
-247.085
-207.027
-165.334
-123.6
-86.4
-56.497
-35.191
-22.037
-14.362
-10.676
-10.05
-11.09
-12.782
-13.833
-13.221
-10.91
-7.148
-2.103
3.859
10.207
16.258
21.119
24.344
26.045
26.462
25.915
24.702
23.067
21.411
20.246
19.868
20.369
21.736
23.847
26.619
30.026
33.966
38.29
42.851
47.494
52.099
56.611
60.977
65.135
69.028
72.602
75.831
78.724
81.301
83.58
85.578
87.31
88.806
90.116
91.295
92.404
93.504
94.642
95.853
97.173
98.629
100.242
102.028
103.987
106.114
108.409
110.872
113.505
116.306
119.267
122.379
125.629
129.005
132.491
136.072
139.732
143.455
147.225
151.025
154.84
158.653
162.445
166.195
169.88
173.476
176.958
180.301
183.479
186.466
189.237
191.768
194.036
196.019
197.696
199.05
200.061
200.713
200.993
200.887
200.385
199.479
198.162
196.43
194.282
191.719
188.743
185.36
181.577
177.405
172.855
167.94
162.678
157.084
151.181
144.988
138.529
131.829
124.914
117.812
110.55
103.157
95.663
88.098
80.49
72.87
65.265
57.705
50.217
42.826
35.559
28.44
21.492
14.736
8.192
1.877
-4.19
-9.997
-15.529
-20.777
-25.729
-30.381
-34.724
-38.756
-42.475
-45.88
-48.973
-51.757
-54.236
-56.418
-58.309
-59.919
-61.259
-62.341
-63.177
-63.78
-64.167
-64.35
-64.347
-64.173
-63.844
-63.375
-62.783
-62.083
-61.291
-60.421
-59.488
-58.505
-57.487
-56.444
-55.389
-54.334
-53.287
-52.26
-51.26
-50.296
-49.375
-48.504
-47.69
-46.937
-46.251
-45.636
-45.095
-44.631
-44.245
-43.94
-43.715
-43.571
-43.507
-43.523
-43.617
-43.788
-44.034
-44.353
-44.742
-45.198
-45.721
-46.305
-46.949
-47.65
-48.405
-49.21
-50.064
-50.963
-51.905
-52.886
-53.904
-54.954
-56.034
-57.139
-58.265
-59.405
-60.555
-61.71
-62.863
-64.009
-65.141
-66.254
-67.342
-68.397
-69.414
-70.387
-71.308
-72.172
-72.971
-73.701
-74.353
-74.923
-75.404
-75.793
-76.084
-76.273
-76.357
-76.33
-76.192
-75.938
-75.566
-75.076
-74.466
-73.736
-72.887
-71.924
-70.849
-69.672
-68.398
-67.038
-65.599
-64.094
-62.533
-60.927
-59.287
-57.621
-55.939
-54.252
-52.572
-50.913
-49.287
-47.708
-46.188
-44.741
-43.376
-42.103
-40.93
-39.856
-38.887
-38.028
-37.288
-36.686
-36.236
-35.946
-35.825
-35.873
-36.087
-36.461
-36.979
-37.609
-38.327
-39.109
-39.931
-40.788
-41.665
-42.545
-43.412
-44.229
-44.958
-45.584
-46.098
-46.505
-46.833
-47.107
-47.37
-47.689
-48.133
-48.781
-49.715
-50.996
-52.674
-54.771
-57.315
-60.41
-64.119
-68.392
-73.062
-77.766
-82.121
-85.909
-88.888
-90.645
-90.893
-89.572
-86.969
-84.031
-81.737
-80.561
-80.995
-83.746
-89.236
-97.457
-106.904
-114.073
-115.676
-110.149
-99.014
-85.143
-69.444
-49.963
-19.912
27.164
93.215
176.344
268.382
359.215
438.561
495.45
519.837
502.365
439.356
333.373
193.854
37.472
-118.672
-258.301
-368.265
-441.779
-478.132
-481.631
-460.015
-423.475
-380.476
-338.825
-304.813
-278.927
-258.683
-238.276
-212.145
-180.08
-145.623
-114.639
-91.126
-75.313
-65.574
-59.582
-55.997
-54.301
-53.462
-52.296
-50.088
-46.565
-41.926
-36.478
-30.335
-23.734
-17.356
-12.093
-8.46
-6.526
-6.025
-6.548
-7.848
-9.738
-11.891
-13.852
-15.248
-15.881
-15.712
-14.82
-13.264
-11.059
-8.233
-4.864
-1.069
3.026
7.29
11.617
15.943
20.212
24.372
28.375
32.167
35.716
39.027
42.114
44.993
47.674
50.164
52.475
54.654
56.755
58.835
60.957
63.16
65.474
67.932
70.555
73.362
76.363
79.555
82.927
86.475
90.197
94.09
98.152
102.37
106.728
111.21
115.797
120.469
125.207
129.989
134.794
139.601
144.392
149.146
153.844
158.466
162.986
167.381
171.623
175.688
179.548
183.177
186.549
189.639
192.424
194.882
196.992
198.737
200.099
201.062
201.614
201.743
201.439
200.697
199.511
197.88
195.804
193.287
190.334
186.954
183.157
178.957
174.368
169.408
164.096
158.454
152.504
146.271
139.781
133.063
126.144
119.056
111.829
104.495
97.085
89.631
82.165
74.717
67.318
59.997
52.783
45.704
38.785
32.051
25.525
19.227
13.178
7.394
1.891
-3.319
-8.223
-12.813
-17.082
-21.025
-24.639
-27.923
-30.879
-33.51
-35.82
-37.815
-39.506
-40.9
-42.01
-42.848
-43.427
-43.762
-43.869
-43.763
-43.462
-42.982
-42.341
-41.557
-40.646
-39.626
-38.513
-37.324
-36.074
-34.779
-33.453
-32.108
-30.758
-29.414
-28.087
-26.787
-25.522
-24.301
-23.13
-22.016
-20.963
-19.976
-19.058
-18.213
-17.441
-16.743
-16.121
-15.574
-15.102
-14.703
-14.377
-14.121
-13.933
-13.812
-13.753
-13.754
-13.812
-13.923
-14.085
-14.293
-14.546
-14.839
-15.17
-15.537
-15.936
-16.365
-16.822
-17.304
-17.808
-18.332
-18.873
-19.427
-19.992
-20.565
-21.142
-21.721
-22.297
-22.869
-23.432
-23.982
-24.515
-25.027
-25.512
-25.967
-26.385
-26.763
-27.095
-27.376
-27.602
-27.771
-27.877
-27.917
-27.889
-27.788
-27.612
-27.359
-27.026
-26.611
-26.113
-25.532
-24.868
-24.124
-23.302
-22.409
-21.45
-20.43
-19.358
-18.239
-17.082
-15.894
-14.68
-13.446
-12.201
-10.951
-9.708
-8.481
-7.28
-6.119
-5.006
-3.951
-2.962
-2.045
-1.204
-0.44
0.246
0.851
1.366
1.775
2.062
2.221
2.245
2.134
1.891
1.523
1.044
0.479
-0.144
-0.801
-1.473
-2.154
-2.844
-3.538
-4.215
-4.843
-5.386
-5.83
-6.178
-6.433
-6.601
-6.69
-6.713
-6.73
-6.829
-7.084
-7.57
-8.342
-9.4
-10.77
-12.537
-14.755
-17.431
-20.457
-23.535
-26.335
-28.64
-30.231
-30.816
-30.147
-28.066
-24.769
-20.974
-17.637
-15.571
-15.34
-17.565
-22.801
-31.049
-41.707
-52.626
-60.18
-62.047
-56.974
-44.785
-27.236
-3.542
28.428
70.442
125.477
192.875
269.819
351.534
427.518
486.424
516.188
506.949
458.517
376.123
268.205
146.206
18.824
-104.78
-211.271
-289.571
-333.648
-344.095
-331.675
-309.931
-286.566
-264.451
-241.363
-212.792
-178.642
-141.644
-104.77
-71.358
-43.117
-20.098
-2.179
10.865
19.608
24.713
26.545
25.633
22.905
19.173
15.349
12.427
10.758
10.37
11.426
13.892
17.504
21.998
26.823
31.3
35.184
38.442
41.054
43.141
44.817
46.179
47.499
49.132
51.243
53.867
56.955
60.355
63.944
67.653
71.386
75.032
78.518
81.798
84.87
87.776
90.549
93.199
95.717
98.08
100.277
102.323
104.236
106.051
107.806
109.535
111.273
113.062
114.933
116.907
118.997
121.205
123.523
125.954
128.502
131.176
133.981
136.92
139.99
143.187
146.504
149.933
153.461
157.073
160.754
164.487
168.257
172.049
175.85
179.643
183.41
187.132
190.788
194.357
197.818
201.148
204.323
207.32
210.116
212.69
215.021
217.088
218.874
220.358
221.525
222.358
222.842
222.965
222.716
222.084
221.061
219.642
217.822
215.6
212.977
209.954
206.537
202.732
198.548
193.997
189.092
183.847
178.278
172.404
166.243
159.817
153.148
146.26
139.176
131.922
124.523
117.007
109.399
101.726
94.015
86.291
78.58
70.908
63.3
55.78
48.37
41.095
33.974
27.028
20.277
13.737
7.424
1.354
-4.462
-10.011
-15.284
-20.273
-24.972
-29.377
-33.483
-37.289
-40.796
-44.005
-46.919
-49.542
-51.88
-53.94
-55.728
-57.255
-58.53
-59.563
-60.366
-60.95
-61.327
-61.51
-61.511
-61.345
-61.025
-60.564
-59.976
-59.274
-58.473
-57.585
-56.623
-55.601
-54.531
-53.425
-52.294
-51.148
-49.998
-48.854
-47.724
-46.618
-45.542
-44.504
-43.511
-42.567
-41.68
-40.853
-40.089
-39.394
-38.77
-38.219
-37.744
-37.347
-37.029
-36.792
-36.637
-36.563
-36.571
-36.661
-36.832
-37.082
-37.409
-37.812
-38.289
-38.836
-39.451
-40.132
-40.874
-41.675
-42.531
-43.437
-44.391
-45.386
-46.419
-47.484
-48.576
-49.689
-50.818
-51.958
-53.103
-54.246
-55.384
-56.508
-57.613
-58.692
-59.738
-60.746
-61.707
-62.616
-63.467
-64.252
-64.967
-65.608
-66.169
-66.647
-67.039
-67.341
-67.55
-67.666
-67.686
-67.61
-67.437
-67.167
-66.803
-66.348
-65.806
-65.185
-64.491
-63.731
-62.915
-62.05
-61.147
-60.214
-59.258
-58.286
-57.307
-56.33
-55.366
-54.425
-53.517
-52.654
-51.846
-51.104
-50.436
-49.848
-49.344
-48.924
-48.593
-48.354
-48.216
-48.197
-48.308
-48.558
-48.952
-49.492
-50.173
-50.99
-51.925
-52.95
-54.038
-55.164
-56.305
-57.453
-58.594
-59.711
-60.784
-61.779
-62.659
-63.414
-64.047
-64.559
-64.976
-65.321
-65.625
-65.971
-66.452
-67.155
-68.175
-69.578
-71.398
-73.695
-76.544
-79.984
-84.024
-88.541
-93.262
-97.905
-102.219
-105.955
-108.842
-110.609
-111.083
-110.433
-109.174
-108.021
-107.611
-108.308
-110.559
-114.864
-121.391
-129.734
-138.028
-143.042
-142.069
-133.804
-119.629
-102.332
-82.968
-60.236
-28.457
18.233
81.917
161.385
248.839
333.921
406.24
454.599
469.226
442.108
369.935
254.39
105.928
-56.364
-212.189
-339.296
-423.112
-463.52
-467.624
-450.949
-429.143
-407.417
-385.981
-361.218
-328.307
-288.245
-245.164
