Name,Waqar Muhammad
Date of Birth,"Jul 5, 1993"
Recorded Date,2023-09-23 20:21:50 -0500
Classification,High Heart Rate
Symptoms,
Software Version,1.90
Device,"Watch6,7"
Sample Rate,512 hertz


Lead,Lead I
Unit,µV

555.864
752.683
886.474
949.335
958.133
940.985
921.548
911.028
910.393
913.706
913.807
905.556
885.698
854.56
814.348
765.619
702.302
606.62
452.124
215.203
-111.622
-506.329
-916.266
-1273.89
-1515.954
-1606.605
-1549.239
-1379.798
-1153.576
-923.642
-726.445
-580.915
-490.979
-454.349
-468.117
-523.475
-603.984
-687.422
-746.557
-762.056
-730.776
-661.93
-577.614
-501.767
-448.527
-422.878
-417.872
-419.5
-415.909
-400.538
-374.339
-343.768
-316.482
-296.305
-282.02
-272.136
-265.41
-262.853
-269.829
-285.86
-303.961
-317.762
-317.284
-299.785
-274.927
-249.668
-232.045
-227.724
-230.223
-233.595
-234.275
-226.243
-209.748
-190.263
-170.865
-158.597
-161.381
-177.985
-203.954
-229.032
-237.52
-222.191
-185.74
-140.319
-104.342
-91.693
-105.632
-138.465
-177.31
-207.91
-219.098
-206.77
-169.538
-111.342
-41.355
33.591
107.07
177.192
248.314
321.554
394.782
459.878
502.849
512.131
479.896
405.286
293.245
152.196
-4.408
-160.412
-297.1
-397.772
-452.544
-460.972
-432.103
-378
-312.749
-247.479
-187.069
-135.022
-89.283
-45.057
-1.242
42.897
84.582
118.519
143.033
158.077
165.447
168.536
169.505
170.136
172.048
176.202
183.144
192.837
204.78
218.49
233.397
248.781
263.919
278.052
290.86
302.493
313.187
323.228
332.865
342.292
351.781
361.672
372.127
383.134
394.628
406.487
418.63
431.015
443.533
456
468.225
480.057
491.404
502.265
512.673
522.681
532.393
541.924
551.393
560.934
570.646
580.554
590.67
600.962
611.406
622.118
633.183
644.571
656.206
667.826
679.081
689.688
699.203
706.958
712.471
715.525
716.103
714.663
711.962
708.726
705.843
704.458
704.406
703.903
701.345
694.598
683.235
669.497
653.517
633.369
604.73
561.242
497.774
411.316
300.269
162.239
-0.18
-176.103
-344.963
-473.347
-530.666
-502.068
-394.283
-241.065
-86.978
30.696
90.073
91.778
50.658
-17.937
-98.638
-179.742
-252.376
-304.299
-330.121
-332.565
-319.856
-307.307
-304.098
-311.365
-325.879
-339.748
-349.208
-354.799
-358.005
-361.778
-367.127
-373.206
-379.544
-385.648
-391.051
-395.806
-400.062
-403.467
-406.639
-411.351
-417.186
-422.745
-425.863
-421.243
-408.705
-393.852
-381.597
-380.419
-392.787
-410.117
-426.077
-432.988
-426.718
-414.947
-403.037
-394.761
-393.587
-395.514
-397.599
-399.416
-399.597
-399.198
-399.253
-399.311
-399.413
-399.513
-399.384
-399.128
-398.843
-398.49
-398.073
-397.634
-397.166
-396.633
-396.01
-395.271
-394.379
-393.333
-392.127
-390.741
-389.166
-387.393
-385.416
-383.226
-380.818
-378.185
-375.324
-372.239
-368.931
-365.401
-361.652
-357.686
-353.508
-349.122
-344.529
-339.723
-334.703
-329.476
-324.057
-318.475
-312.756
-306.914
-300.962
-294.914
-288.78
-282.567
-276.265
-269.848
-263.291
-256.587
-249.757
-242.837
-235.852
-228.819
-221.735
-214.592
-207.402
-200.174
-192.913
-185.628
-178.34
-171.1
-164.006
-157.176
-150.718
-144.72
-139.208
-134.196
-129.7
-125.68
-122.166
-119.245
-116.876
-114.995
-113.48
-112.024
-110.363
-108.32
-105.463
-101.288
-95.63
-88.509
-80.398
-72.265
-64.996
-59.484
-56.856
-58.184
-62.829
-68.637
-73.258
-73.688
-70.942
-69.588
-70.599
-73.264
-70.491
-48.222
1.345
80.348
182.515
290.292
385.041
450.221
474.447
453.121
389.252
290.107
161.96
15.99
-136.047
-281.518
-401.463
-481.944
-517.905
-512.488
-479.162
-435.189
-392.254
-355.551
-326.189
-299.078
-269.03
-234.714
-194.675
-151.786
-111.956
-78.001
-51.862
-33.452
-20.017
-10.312
-4.128
-0.715
0.63
1
1.876
3.892
6.911
10.908
15.845
21.438
27.293
32.756
37.049
39.922
41.537
42.13
42.016
41.494
40.856
40.518
40.934
42.356
44.861
48.435
52.983
58.441
64.752
71.818
79.495
87.637
96.118
104.813
113.642
122.532
131.396
140.164
148.787
157.231
165.483
173.547
181.42
189.106
196.615
203.959
211.159
218.246
225.251
232.211
239.152
246.085
253.018
259.949
266.87
273.768
280.62
287.396
294.07
300.619
307.018
313.248
319.287
325.11
330.692
336.008
341.037
345.76
350.161
354.227
357.948
361.315
364.322
366.97
369.257
371.183
372.748
373.952
374.798
375.292
375.439
375.249
374.73
373.895
372.759
371.337
369.648
367.709
365.542
363.166
360.603
357.877
355.009
352.024
348.945
345.796
342.6
339.38
336.161
332.963
329.809
326.718
323.71
320.804
318.016
315.364
312.861
310.52
308.354
306.373
304.586
303
301.621
300.456
299.506
298.775
298.264
297.972
297.898
298.037
298.388
298.945
299.701
300.652
301.788
303.104
304.591
306.242
308.049
310.003
312.096
314.32
316.665
319.126
321.691
324.353
327.103
329.934
332.837
335.806
338.833
341.911
345.031
348.189
351.377
354.588
357.813
361.042
364.266
367.476
370.664
373.817
376.929
379.988
382.988
385.923
388.788
391.575
394.274
396.878
399.376
401.76
404.02
406.146
408.128
409.958
411.635
413.157
414.525
415.734
416.777
417.641
418.315
418.794
419.071
419.141
419.01
418.686
418.189
417.552
416.805
415.968
415.063
414.099
413.09
412.052
411.003
409.963
408.954
407.992
407.091
406.253
405.449
404.635
403.746
402.692
401.406
399.822
397.859
395.449
392.534
389.069
385.047
380.463
375.233
369.307
362.765
355.8
348.77
342.066
335.963
330.777
327.022
325.092
325.039
326.561
328.865
331.119
332.738
333.01
330.922
325.524
317.641
309.864
304.918
305.833
311.651
317.584
323.346
330.2
343.871
377.368
435.448
518.1
621.818
731.636
834.822
919.089
970.052
979.664
941.568
854.61
723.734
559.385
380.028
205.751
59.267
-41.737
-94.094
-103.284
-84.931
-57.281
-28.134
0.702
32.385
72.528
120.214
170.943
219.851
261.549
293.721
316.515
330.691
337.783
339.405
337.003
332.146
326.547
321.795
319.121
319.014
321.312
325.543
331.095
337.371
343.684
349.21
353.199
355.309
355.65
354.591
352.543
349.822
346.715
343.565
340.804
338.775
337.627
337.374
337.948
339.284
341.363
344.156
347.556
351.428
355.621
359.973
364.397
368.851
373.281
377.644
381.884
385.931
389.755
393.361
396.742
399.891
402.798
405.442
407.837
410.027
412.058
413.984
415.838
417.63
419.369
421.064
422.718
424.33
425.887
427.362
428.735
429.995
431.133
432.142
433.005
433.702
434.209
434.509
434.583
434.416
433.992
433.296
432.315
431.044
429.477
427.611
425.445
422.972
420.19
417.095
413.687
409.965
405.93
401.583
396.927
391.969
386.716
381.178
375.365
369.29
362.966
356.409
349.633
342.657
335.497
328.173
320.704
313.109
305.411
297.628
289.784
281.898
273.992
266.088
258.206
250.367
242.589
234.891
227.292
219.809
212.458
205.254
198.212
191.345
184.664
178.181
171.906
165.845
160.005
154.393
149.013
143.868
138.96
134.288
129.853
125.653
121.686
117.947
114.433
111.138
108.058
105.186
102.516
100.041
97.754
95.648
93.715
91.946
90.335
88.871
87.546
86.352
85.28
84.321
83.469
82.714
82.048
81.463
80.953
80.51
80.124
79.786
79.485
79.212
78.955
78.706
78.454
78.189
77.901
77.584
77.233
76.842
76.403
75.907
75.346
74.71
73.995
73.19
72.286
71.278
70.16
68.93
67.593
66.148
64.592
62.917
61.109
59.159
57.061
54.81
52.403
49.847
47.15
44.332
41.428
38.465
35.467
32.454
29.436
26.428
23.448
20.515
17.657
14.893
12.242
9.71
7.289
4.953
2.659
0.346
-2.064
-4.655
-7.519
-10.742
-14.403
-18.579
-23.313
-28.665
-34.709
-41.453
-48.86
-56.774
-64.888
-72.87
-80.427
-87.218
-92.852
-97.051
-99.676
-100.95
-101.477
-101.995
-103.141
-105.367
-109.283
-115.432
-123.912
-134.31
-144.57
-151.152
-151.161
-142.282
-125.246
-104.008
-80.775
-56.977
-28.409
14.517
77.586
164.342
269.006
374.61
463.828
518.653
525.091
479.582
384.032
244.401
75.252
-104.561
-275.03
-412.58
-502.754
-545.57
-549.078
-531.26
-509.05
-487.707
-466.846
-441.76
-407.225
-364.601
-318.435
-272.925
-231.911
-197.243
-169.009
-147.096
-131.362
-121.134
-115.421
-113.607
-114.914
-118.124
-122.305
-126.466
-129.533
-131.22
-131.631
-130.737
-128.784
-126.234
-123.416
-120.859
-119.128
-118.302
-118.303
-119.035
-120.241
-121.661
-123.042
-124.01
-124.213
-123.509
-121.87
-119.334
-116.005
-111.966
-107.326
-102.256
-96.957
-91.581
-86.205
-80.87
-75.589
-70.394
-65.344
-60.479
-55.807
-51.328
-47.039
-42.945
-39.055
-35.364
-31.835
-28.419
-25.063
-21.727
-18.4
-15.073
-11.743
-8.409
-5.073
-1.748
1.541
4.772
7.928
10.996
13.965
16.817
19.525
22.064
24.409
26.535
28.424
30.055
31.407
32.462
33.209
33.635
33.733
33.494
32.907
31.965
30.658
28.98
26.926
24.491
21.673
18.472
14.889
10.93
6.603
1.915
-3.123
-8.497
-14.194
-20.196
-26.486
-33.045
-39.851
-46.883
-54.118
-61.529
-69.093
-76.784
-84.575
-92.439
-100.351
-108.282
-116.208
-124.103
-131.942
-139.7
-147.353
-154.879
-162.255
-169.46
-176.474
-183.278
-189.855
-196.189
-202.267
-208.077
-213.607
-218.85
-223.798
-228.446
-232.791
-236.83
-240.563
-243.991
-247.115
-249.939
-252.469
-254.71
-256.669
-258.354
-259.774
-260.938
-261.854
-262.533
-262.985
-263.22
-263.247
-263.078
-262.722
-262.191
-261.496
-260.648
-259.657
-258.536
-257.295
-255.944
-254.494
-252.955
-251.338
-249.651
-247.903
-246.104
-244.264
-242.393
-240.504
-238.605
-236.708
-234.823
-232.962
-231.133
-229.347
-227.609
-225.926
-224.304
-222.749
-221.27
-219.876
-218.574
-217.371
-216.278
-215.301
-214.445
-213.714
-213.109
-212.625
-212.262
-212.018
-211.896
-211.909
-212.068
-212.377
-212.84
-213.457
-214.218
-215.117
-216.137
-217.246
-218.425
-219.645
-220.888
-222.149
-223.419
-224.688
-225.945
-227.155
-228.282
-229.314
-230.241
-231.073
-231.842
-232.569
-233.293
-234.08
-234.992
-236.106
-237.505
-239.234
-241.331
-243.812
-246.697
-250.087
-254.058
-258.557
-263.4
-268.25
-272.734
-276.594
-279.545
-281.161
-281.126
-279.372
-276.257
-272.651
-269.459
-267.528
-267.732
-270.841
-277.574
-287.473
-298.263
-307.314
-311.793
-310.57
-305.894
-298.66
-287.875
-270.747
-239.457
-187.861
-114.459
-20.087
87.595
196.666
294.388
365.483
395.118
372.999
295.441
166.484
0.625
-181.241
-357.513
-506.715
-615.672
-680.031
-702.143
-692.58
-661.837
-620.135
-576.132
-532.98
-493.684
-457.443
-420.826
-383.137
-343.333
-303.767
-269.718
-243.433
-225.845
-215.995
-210.647
-208.106
-207.399
-207.092
-206.351
-204.349
-200.489
-195.073
-188.657
-181.54
-174.114
-166.938
-160.581
-155.706
-152.594
-150.972
-150.46
-150.727
-151.471
-152.461
-153.381
-153.75
-153.262
-151.822
-149.41
-146.109
-141.983
-137.021
-131.282
-124.904
-118.029
-110.828
-103.454
-95.969
-88.431
-80.899
-73.424
-66.084
-58.934
-51.983
-45.231
-38.684
-32.346
-26.232
-20.348
-14.661
-9.132
-3.713
1.646
6.968
12.265
17.548
22.82
28.082
33.326
38.529
43.661
48.701
53.631
58.436
63.102
67.605
71.919
76.021
79.885
83.489
86.815
89.842
92.553
94.936
96.981
98.68
100.031
101.027
101.664
101.939
101.847
101.389
100.563
99.372
97.818
95.907
93.648
91.05
88.128
84.896
81.369
77.565
73.505
69.209
64.697
59.993
55.121
50.105
44.97
39.741
34.445
29.106
23.751
18.404
13.092
7.837
2.663
-2.408
-7.354
-12.155
-16.791
-21.243
-25.496
-29.531
-33.336
-36.896
-40.201
-43.24
-46.005
-48.491
-50.692
-52.606
-54.23
-55.565
-56.61
-57.369
-57.844
-58.04
-57.961
-57.615
-57.008
-56.149
-55.044
-53.704
-52.135
-50.346
-48.347
-46.147
-43.752
-41.171
-38.414
-35.488
-32.403
-29.167
-25.79
-22.278
-18.641
-14.886
-11.021
-7.053
-2.99
1.163
5.398
9.709
14.087
18.525
23.013
27.543
32.106
36.693
41.295
45.904
50.513
55.115
59.706
64.281
68.832
73.352
77.832
82.263
86.635
90.939
95.166
99.31
103.365
107.326
111.194
114.969
118.649
122.23
125.697
129.037
132.245
135.316
138.252
141.062
143.751
146.335
148.843
151.3
153.734
156.164
158.594
161.023
163.449
165.882
168.35
170.876
173.463
176.102
178.771
181.45
184.116
186.731
189.222
191.501
193.482
195.094
196.289
197.049
197.376
197.253
196.626
195.479
193.879
191.998
190.142
188.588
187.529
187.192
187.888
189.889
193.344
198.073
203.423
208.683
213.358
216.964
219.042
219.172
216.898
213.166
210.706
212.241
220.324
234.204
249.489
263.705
276.015
291.232
320.224
370.086
444.088
537.789
636.767
724.961
786.909
811.323
793.615
736.11
644.638
525.153
388.33
245.128
108.799
-1.508
-74.141
-106.304
-103.275
-81.155
-54.107
-27.577
-1.647
28.448
67.087
113.183
162.981
212.4
257.656
296.617
328.603
353.697
372.443
385.683
394.403
399.447
401.909
403.463
405.672
409.432
415.111
422.562
431.395
441.304
451.85
462.209
471.46
479.112
485.101
489.637
493.109
495.816
498.002
500.078
502.563
505.797
509.94
515.024
520.951
527.661
535.144
543.329
552.104
561.344
570.91
580.689
590.602
600.572
610.532
620.416
630.151
639.689
649.006
658.091
666.942
675.557
683.927
692.052
699.947
707.637
715.155
722.533
729.806
736.994
744.11
751.162
758.15
765.064
771.889
778.601
785.169
791.569
797.779
803.773
809.53
815.021
820.219
825.095
829.62
833.766
837.508
840.823
843.692
846.097
848.023
849.459
850.397
850.828
850.745
850.143
849.017
847.364
845.184
842.48
839.257
835.523
831.288
826.566
821.375
815.734
809.666
803.194
796.347
789.153
781.642
773.846
765.801
757.539
749.098
740.513
731.821
723.061
714.268
705.48
696.734
688.064
679.505
671.091
662.854
654.824
647.029
639.497
632.251
625.314
618.708
612.45
606.555
601.037
595.906
591.17
586.835
582.902
579.37
576.237
573.496
571.139
569.157
567.537
566.266
565.331
564.716
564.407
564.386
564.638
565.145
565.889
566.853
568.019
569.372
570.896
572.574
574.394
576.345
578.416
580.598
582.884
585.267
587.741
590.304
592.953
595.685
598.499
601.394
604.372
607.44
610.601
613.86
617.222
620.694
624.282
627.996
631.842
635.822
639.94
644.198
648.599
653.149
657.851
662.703
667.704
672.85
678.146
683.605
689.229
695.01
700.934
706.975
713.108
719.319
725.574
731.831
738.056
744.211
750.274
756.246
762.099
767.801
773.303
778.519
783.38
787.826
791.803
795.303
798.333
800.9
803.057
804.852
806.301
807.451
808.23
808.456
807.964
806.481
803.77
799.838
794.683
788.266
780.782
772.377
763.18
753.631
743.914
733.699
722.6
710.041
695.162
677.44
656.405
631.239
601.486
567.251
528.891
487.231
443.434
398.21
351.916
304.974
257.673
210.087
162.008
112.835
61.633
7.815
-47.143
-100.118
-148.689
-190.741
-227.828
-265.101
-303.84
-342.884
-375.141
-387.359
-372.337
-328.084
-261.592
-191.202
-133.757
-104.495
-114.403
-163.195
-247.403
-361.745
-496.409
-644.258
-799.404
-953.146
-1101.722
-1245.667
-1387.406
-1536.642
-1701.906
-1885.071
-2082.817
-2281.159
-2461.362
-2606.451
-2700.991
-2737.846
-2717.933
-2645.304
-2532.791
-2398.493
-2259.991
-2140.154
-2054.961
-2007.572
-1996.888
-2009.133
-2027.161
-2042.066
-2043.816
-2029.146
-2000.348
-1955.977
-1901.219
-1843.636
-1791.761
-1759.74
-1755.87
-1782.632
-1833.539
-1890.783
-1934.554
-1945.707
-1914.981
-1845.968
-1752.87
-1658.28
-1581.089
-1531.76
-1508.945
-1500.199
-1492.517
-1477.546
-1453.727
-1425.718
-1398.666
-1374.476
-1352.817
-1331.918
-1309.615
-1285.167
-1258.503
-1229.751
-1199.751
-1169.481
-1139.458
-1109.993
-1081.236
-1053.201
-1026.154
-1000.411
-976.038
-952.905
-930.87
-909.854
-889.868
-870.996
-853.239
-836.53
-820.813
-806.062
-792.273
-779.438
-767.533
-756.489
-746.231
-736.688
-727.788
-719.472
-711.698
-704.42
-697.59
-691.166
-685.112
-679.403
-674.043
-669.035
-664.352
-659.964
-655.874
-652.088
-648.61
-645.456
-642.591
-639.957
-637.564
-635.443
-633.469
-631.5
-629.603
-627.756
-625.917
-624.358
-622.294
-618.963
-615.429
-612.007
-610.66
-613.745
-618.636
-623.582
-625.979
-622.25
-615.54
-608.514
-602.992
-601.992
-603.34
-604.83
-605.965
-605.398
-603.898
-602.455
-600.868
-599.251
-597.528
-595.487
-593.243
-590.89
-588.382
-585.69
-582.833
-579.83
-576.685
-573.412
-570.036
-566.541
-562.945
-559.287
-555.521
-551.547
-547.299
-542.705
-537.607
-531.928
-525.804
-519.249
-512.375
-505.781
-498.981
-491.451
-484.309
-477.467
-473.313
-475.677
-482.42
-491.467
-496.884
-488.283
-465.259
-430.507
-391.385
-362.844
-350.685
-356.876
-379.494
-407.842
-434.979
-452.307
-451.772
-433.159
-397.184
-353.848
-317.52
-296.185
-295.837
-311.087
-329.128
-342.289
-344.31
-335.914
-324.168
-312.649
-303.732
-297.986
-293.028
-288.031
-283.165
-278.321
-273.888
-269.966
-266.245
-262.682
-259.362
-256.276
-253.394
-250.66
-247.951
-245.2
-242.218
-238.515
-233.795
-228.199
-222.008
-215.716
-208.942
-200.046
-188.403
-175.498
-165.634
-164.501
-175.232
-195.478
-216.156
-227.264
-221.308
-196.109
-160.577
-124.978
-98.368
-90.156
-99.128
-123.237
-162.535
-209.431
-258.923
-302.844
-326.851
-326.878
-305.087
-270.011
-238.065
-218.119
-210.131
-208.086
-201.542
-185.216
-163.007
-146.924
-151.688
-187.899
-255.625
-340.76
-422.147
-477.605
-492.107
-464.815
-404.243
-326.028
-244.655
-166.082
-89.829
-7.544
86.879
189.167
286.622
355.945
375.908
338.273
245.314
112.825
-38.369
-191.207
-330.043
-443.544
-523.943
-567.997
-577.987
-561.626
-532.012
-497.814
-464.923
-434.646
-399.295
-354.911
-299.175
-234.087
-171.503
-120.911
-89.555
-78.269
-78.502
-82.579
-83.505
-78.521
-70.421
-60.469
-49.773
-38.682
-25.432
-9.663
7.93
26.693
45.231
62.319
77.574
90.888
102.215
111.268
118.632
125.067
130.17
134.64
137.133
135.702
133.499
133.053
137.771
151.536
170.89
192.119
213.223
232.209
250.493
268.386
283.431
292.218
294.325
293.578
294.82
304.215
322.308
343.284
362.41
374.889
379.774
381.264
382.415
384.426
387.31
390.685
394.108
399.678
409.801
421.487
432.334
438.856
436.48
429.258
421.233
414.305
412.522
412.811
412.077
413.858
419.543
433.367
459.024
490.25
523.051
555.033
583.508
614.886
650.862
685.404
712.869
721.011
703.559
667.994
624.609
589.404
575.062
580.397
598.355
617.135
625.95
622.732
610.457
594.719
580.085
567.508
556.091
544.355
531.791
518.857
505.98
493.454
481.314
469.573
458.377
447.682
437.511
428.095
419.312
410.931
402.756
393.942
384.546
376.289
369.065
361.683
352.473
337.146
316.431
296.604
283.287
283.805
299.339
322.37
346.28
364.68
374.794
380.802
387.059
394.893
403.02
407.16
400.847
383.296
361.184
342.52
338.314
353.972
381.42
409.661
426.744
423.93
405.636
381.874
361.589
350.278
345.35
338.376
320.439
291.708
260.155
236.434
235.8
259.959
296.355
333.616
353.774
348.383
328.584
304.707
292.86
309.46
352.001
411.119
469.577
500.845
492.706
451.119
396.267
358.346
349.017
341.191
275.935
84.576
-268.532
-748.861
-1256.278
-1661.891
-1863.354
-1830.416
-1605.057
-1268.268
-895.798
-529.275
-183.865
128.853
383.687
543.734
586.213
524.476
406.823
297.366
243.82
252.906
297.875
338.967
344.247
311.388
258.334
203.341
159.262
119.844
68.88
2.669
-70.604
-127.386
-138.494
-94.21
-8.301
84.882
141.739
133.935
60.881
-51.942
-161.93
-229.258
-234.523
-182.127
-99.808
-26.021
9.315
-8.545
-70.005
-144.87
-200.218
-208.28
-161.04
-75.623
16.755
80.455
91.824
50.248
-21.083
-86.412
-115.391
-92.485
-28.325
49.575
116.567
154.266
164.651
166.171
175.517
206.983
263.219
334.74
409.585
474.148
516.251
527.202
503.537
447.182
365.76
269.488
164.511
56.17
-51.499
-151.683
-228.371
-269.51
-269.367
-230.629
-172.733
-114.433
-67.329
-38.693
-22.081
-8.457
5.346
21.989
38.297
48.796
52.529
49.613
42.199
34.057
27.212
22.92
21.906
23.809
28.103
34.071
40.59
46.93
52.723
57.581
61.332
64.148
66.406
68.759
72.069
76.652
82.267
88.752
95.967
103.689
111.744
119.782
127.231
133.978
140.38
146.685
153.08
159.686
166.433
173.37
180.727
188.516
196.551
204.703
212.839
220.9
228.966
237.054
245.111
253.126
261.106
269.053
276.999
284.946
292.862
300.734
308.551
316.307
324.007
331.651
339.229
346.731
354.143
361.448
368.634
375.693
382.612
389.383
395.995
402.437
408.699
414.772
420.645
426.305
431.736
436.92
441.842
446.488
450.846
454.905
458.653
462.078
465.173
467.929
470.339
472.397
474.099
475.439
476.416
477.029
477.278
477.169
476.704
475.89
474.735
473.249
471.442
469.329
466.921
464.235
461.288
458.096
454.678
451.056
447.249
443.279
439.169
434.941
430.62
426.23
421.793
417.333
412.872
408.435
404.041
399.712
395.469
391.329
387.311
383.432
379.707
376.151
372.777
369.595
366.615
363.846
361.294
358.962
356.854
354.971
353.313
351.878
350.662
349.663
348.874
348.288
347.899
347.698
347.675
347.82
348.121
348.565
349.139
349.83
350.624
351.506
352.462
353.478
354.538
355.629
356.735
357.842
358.934
359.996
361.011
361.962
362.835
363.613
364.283
364.828
365.239
365.502
365.607
365.548
365.314
364.898
364.292
363.485
362.467
361.229
359.76
358.053
356.102
353.903
351.453
348.753
345.808
342.617
339.18
335.483
331.518
327.282
322.775
318.001
312.975
307.709
302.222
296.552
290.731
284.789
278.753
272.621
266.381
260.034
253.587
247.058
240.468
233.809
227.063
220.222
213.263
206.16
198.872
191.299
183.35
174.951
166.03
156.565
146.563
135.996
124.86
113.151
100.814
87.925
74.643
61.125
47.67
34.582
22.075
10.536
0.413
-8.173
-15.242
-21.08
-26.492
-32.084
-38.245
-45.638
-54.774
-65.668
-78.161
-91.378
-103.464
-112.935
-118.557
-118.564
-111.529
-96.586
-72.952
-42.183
-8.338
25.611
56.626
84.019
110.739
135.359
153.834
158.417
135.837
80.387
-8.022
-124.766
-254.419
-384.077
-501.438
-592.174
-652.797
-683.29
-687.827
-678.461
-661.321
-638.829
-612.23
-578.269
-537.112
-492.628
-448.218
-408.128
-375.494
-350.701
-333.198
-322.167
-316.229
-313.816
-313.739
-314.483
-314.171
-311.926
-307.525
-300.988
-292.961
-284.216
-275.267
-266.911
-260.151
-255.456
-252.967
-252.57
-253.775
-256.128
-259.263
-262.72
-266.006
-268.762
-270.76
-271.897
-272.206
-271.712
-270.422
-268.371
-265.612
-262.221
-258.27
-253.853
-249.058
-243.985
-238.762
-233.497
-228.272
-223.17
-218.246
-213.526
-209.034
-204.778
-200.746
-196.935
-193.336
-189.923
-186.676
-183.566
-180.554
-177.6
-174.657
-171.688
-168.669
-165.587
-162.437
-159.224
-155.958
-152.653
-149.335
-146.025
-142.744
-139.513
-136.35
-133.277
-130.318
-127.498
-124.845
-122.382
-120.133
-118.115
-116.347
-114.844
-113.622
-112.692
-112.06
-111.735
-111.725
-112.039
-112.684
-113.664
-114.982
-116.639
-118.636
-120.969
-123.633
-126.622
-129.923
-133.525
-137.414
-141.574
-145.988
-150.638
-155.5
-160.555
-165.778
-171.146
-176.634
-182.216
-187.865
-193.555
-199.26
-204.954
-210.61
-216.202
-221.706
-227.095
-232.347
-237.438
-242.345
-247.047
-251.525
-255.757
-259.728
-263.419
-266.816
-269.905
-272.674
-275.11
-277.206
-278.954
-280.348
-281.384
-282.059
-282.374
-282.328
-281.925
-281.168
-280.06
-278.608
-276.817
-274.697
-272.253
-269.495
-266.432
-263.075
-259.435
-255.524
-251.355
-246.942
-242.298
-237.437
-232.374
-227.125
-221.707
-216.135
-210.426
-204.599
-198.672
-192.667
-186.603
-180.504
-174.387
-168.275
-162.188
-156.147
-150.17
-144.274
-138.475
-132.788
-127.233
-121.824
-116.579
-111.516
-106.651
-102.003
-97.59
-93.428
-89.531
-85.907
-82.564
-79.507
-76.742
-74.275
-72.116
-70.271
-68.74
-67.524
-66.621
-66.019
-65.703
-65.643
-65.805
-66.156
-66.664
-67.301
-68.05
-68.896
-69.835
-70.862
-71.958
-73.114
-74.323
-75.583
-76.903
-78.296
-79.769
-81.363
-83.14
-85.16
-87.481
-90.135
-93.129
-96.474
-100.154
-104.158
-108.481
-113.051
-117.828
-122.816
-127.919
-133.007
-137.873
-142.123
-145.422
-147.576
-148.255
-147.114
-144.084
-139.24
-133.125
-126.72
-120.64
-115.376
-111.733
-110.427
-111.799
-115.058
-117.68
-116.872
-111.3
-102.44
-92.874
-83.383
-72.1
-52.516
-18.171
33.637
102.152
179.685
255.983
319.25
357.643
364.567
335.359
272.255
180.706
64.155
-66.832
-201.448
-325.401
-417.679
-468.824
-478.038
-453.923
-416.38
-377.451
-341.829
-309.297
-272.975
-231.235
-187.136
-144.359
-108.491
-82.33
-65.249
-56.095
-53.058
-54.154
-58.12
-63.669
-69
-72.657
-74.017
-72.946
-69.802
-65.28
-59.851
-53.963
-48.396
-43.852
-40.641
-38.816
-38.133
-38.204
-38.792
-39.676
-40.523
-40.968
-40.716
-39.605
-37.626
-34.851
-31.333
-27.122
-22.293
-16.975
-11.337
-5.508
0.422
6.411
12.45
18.514
24.566
30.576
36.509
42.346
48.082
53.702
59.188
64.539
69.761
74.882
79.96
85.035
90.129
95.255
100.41
105.589
110.792
116.005
121.207
126.378
131.496
136.548
141.524
146.412
151.192
155.841
160.332
164.64
168.746
172.63
176.27
179.65
182.754
185.569
188.088
190.305
192.209
193.791
195.043
195.955
196.524
196.744
196.611
196.121
195.276
194.078
192.532
190.645
188.424
185.878
183.02
179.862
176.417
172.702
168.733
164.527
160.103
155.482
150.685
145.734
140.651
135.458
130.179
124.835
119.451
114.047
108.646
103.268
97.935
92.666
87.483
82.402
77.443
72.623
67.957
63.46
59.146
55.027
51.112
47.412
43.934
40.685
37.671
34.897
32.364
30.075
28.031
26.229
24.668
23.343
22.251
21.385
20.741
20.31
20.087
20.062
20.23
20.582
21.109
21.803
22.654
23.653
24.791
26.058
27.446
28.945
30.547
32.243
34.027
35.89
37.823
39.818
41.865
43.955
46.08
48.23
50.397
52.571
54.744
56.908
59.056
61.181
63.276
65.33
67.336
69.285
71.169
72.98
74.708
76.34
77.867
79.277
80.562
81.713
82.721
83.579
84.28
84.82
85.196
85.407
85.448
85.317
85.009
84.521
83.851
83.006
81.996
80.833
79.528
78.095
76.539
74.867
73.078
71.163
69.112
66.913
64.555
62.037
59.376
56.603
53.757
50.866
47.926
44.919
41.841
38.699
35.528
32.366
29.227
26.126
23.12
20.317
17.783
15.517
13.356
10.988
8.22
5.045
1.549
-2.189
-6.07
-9.95
-13.405
-15.59
-15.881
-14.17
-10.685
-5.89
-0.223
5.996
12.12
16.794
18.762
17.316
12.182
3.617
-8.024
-22.446
-39.15
-56.854
-73.587
-87.609
-96.586
-97.305
-88.527
-70.138
-43.012
-12.692
17.813
50.8
88.612
138.577
205.888
284.079
362.011
423.275
449.533
432.689
374.236
281.298
164.922
35.68
-98.487
-227.793
-337.565
-414.327
-450.553
-447.393
-417.491
-376.99
-335.843
-297.771
-260.484
-219.439
-174.804
-129.887
-88.88
-56.037
-32.776
-18.309
-11.227
-9.602
-11.636
-15.828
-20.634
-24.62
-26.704
-26.485
-24.146
-20.137
-15.047
-9.449
-3.92
0.89
4.362
6.284
6.837
6.298
5.002
3.208
1.107
-1.004
-2.729
-3.784
-4.045
-3.481
-2.151
-0.093
2.707
6.199
10.267
14.762
19.512
24.41
29.429
34.55
39.756
45.021
50.297
55.548
60.774
65.97
71.126
76.226
81.248
86.188
91.073
95.95
100.873
105.876
110.966
116.145
121.407
126.744
132.146
137.59
143.036
148.454
153.817
159.102
164.292
169.359
174.27
178.988
183.476
187.701
191.632
195.238
198.489
201.36
203.828
205.876
207.491
208.659
209.368
209.604
209.357
208.62
207.386
205.653
203.419
200.685
197.458
193.746
189.562
184.92
179.838
174.336
168.437
162.165
155.548
148.613
141.391
133.913
126.213
118.324
110.282
102.121
93.877
85.587
77.285
69.007
60.786
52.656
44.648
36.792
29.119
21.655
14.426
7.456
0.767
-5.623
-11.694
-17.433
-22.827
-27.867
-32.547
-36.861
-40.809
-44.392
-47.614
-50.48
-52.999
-55.182
-57.04
-58.588
-59.843
-60.821
-61.541
-62.022
-62.286
-62.354
-62.248
-61.989
-61.6
-61.104
-60.523
-59.879
-59.194
-58.489
-57.783
-57.096
-56.445
-55.849
-55.321
-54.877
-54.53
-54.29
-54.168
-54.172
-54.309
-54.584
-55
-55.557
-56.256
-57.094
-58.068
-59.172
-60.4
-61.745
-63.197
-64.748
-66.388
-68.106
-69.888
-71.724
-73.598
-75.5
-77.413
-79.325
-81.22
-83.085
-84.906
-86.671
-88.369
-89.986
-91.514
-92.941
-94.26
-95.461
-96.537
-97.482
-98.289
-98.956
-99.48
-99.859
-100.096
-100.194
-100.157
-99.993
-99.709
-99.313
-98.815
-98.223
-97.547
-96.796
-95.976
-95.099
-94.173
-93.21
-92.225
-91.233
-90.248
-89.285
-88.356
-87.472
-86.643
-85.88
-85.182
-84.554
-83.999
-83.526
-83.155
-82.907
-82.79
-82.81
-82.968
-83.257
-83.673
-84.205
-84.82
-85.49
-86.185
-86.878
-87.575
-88.285
-89.005
-89.726
-90.417
-91.047
-91.616
-92.138
-92.622
-93.08
-93.524
-93.973
-94.5
-95.194
-96.144
-97.429
-99.083
-101.114
-103.534
-106.376
-109.735
-113.627
-117.933
-122.413
-126.718
-130.523
-133.62
-135.744
-136.466
-135.551
-133.044
-129.328
-125.357
-122.077
-120.116
-120.14
-122.748
-128.08
-135.825
-144.91
-153.216
-158.577
-158.898
-151.814
-135.385
-107.991
-69.722
-23.35
27.937
80.853
134.078
189.636
246.557
299.38
339.46
353.51
331.495
272.614
179.814
60.716
-71.65
-206.698
-330.554
-425.896
-484.975
-506.465
-497.238
-472.508
-441.667
-407.012
-366.975
-318.962
-264.045
-208.75
-160.764
-122.467
-94.455
-74.834
-59.77
-50.146
-46.413
-47.311
-52.429
-58.786
-63.359
-65.425
-64.584
-61.02
-55.554
-48.738
-41.131
-33.825
-27.906
-23.848
-21.761
-21.426
-22.37
-24.251
-26.792
-29.544
-32.009
-33.825
-34.777
-34.82
-34.022
-32.422
-30.035
-26.891
-23.06
-18.648
-13.769
-8.547
-3.084
2.56
8.329
14.172
20.039
25.869
31.62
37.287
42.87
48.363
53.762
59.052
64.227
69.315
74.354
79.382
84.442
89.555
94.728
99.972
105.287
110.668
116.102
121.562
127.013
132.431
137.794
143.081
148.27
153.331
158.232
162.942
167.43
171.666
175.621
179.266
182.576
185.529
188.106
190.291
192.072
193.435
194.366
194.855
194.891
194.465
193.572
192.208
190.37
188.06
185.282
182.044
178.356
174.231
169.685
164.735
159.401
153.705
147.67
141.321
134.686
127.794
120.673
113.356
105.875
98.262
90.553
82.78
74.978
67.18
59.421
51.733
44.148
36.697
29.412
22.319
15.447
8.821
2.466
-3.597
-9.348
-14.769
-19.845
-24.564
-28.917
-32.895
-36.493
-39.71
-42.545
-45
-47.079
-48.789
-50.138
-51.135
-51.793
-52.125
-52.147
-51.874
-51.326
-50.522
-49.481
-48.225
-46.777
-45.159
-43.393
-41.502
-39.51
-37.44
-35.314
-33.156
-30.985
-28.824
-26.693
-24.612
-22.597
-20.667
-18.837
-17.119
-15.528
-14.074
-12.766
-11.613
-10.622
-9.797
-9.144
-8.664
-8.36
-8.23
-8.275
-8.49
-8.871
-9.412
-10.106
-10.944
-11.917
-13.014
-14.223
-15.534
-16.932
-18.405
-19.938
-21.517
-23.127
-24.753
-26.379
-27.989
-29.569
-31.103
-32.577
-33.979
-35.297
-36.517
-37.63
-38.626
-39.495
-40.23
-40.821
-41.263
-41.55
-41.676
-41.638
-41.435
-41.067
-40.537
-39.849
-39.008
-38.021
-36.897
-35.644
-34.27
-32.784
-31.195
-29.511
-27.743
-25.902
-23.999
-22.049
-20.069
-18.075
-16.08
-14.098
-12.14
-10.22
-8.347
-6.524
-4.758
-3.053
-1.423
0.11
1.526
2.814
3.966
4.98
5.858
6.6
7.215
7.728
8.164
8.55
8.902
9.211
9.467
9.674
9.844
10.009
10.191
10.383
10.572
10.75
10.905
11.025
11.073
10.969
10.63
9.98
8.953
7.527
5.684
3.423
0.731
-2.475
-6.184
-10.272
-14.55
-18.696
-22.41
-25.564
-27.95
-29.143
-28.963
-27.445
-24.851
-22.109
-20.031
-18.884
-19.157
-21.583
-26.477
-33.827
-42.275
-48.451
-49.368
-43.859
-33.557
-21.44
-9.441
3.223
23.555
58.835
113.5
189.533
277.724
362.947
430.246
462.909
452.388
400.716
313.283
199.546
71.373
-62.437
-191.448
-300.726
-379.803
-423.875
-433.367
-419.837
-395.179
-364.369
-332.365
-298.311
-260.314
-222.248
-184.285
-147.174
-112.916
-80.606
-52.521
-30.721
-15.13
-5.958
-1.506
-0.18
-1.234
-3.396
-5.763
-7.513
-7.987
-7.225
-5.425
-2.713
0.614
4.193
7.553
10.099
11.643
12.303
12.221
11.629
10.72
9.679
8.86
8.652
9.249
10.711
13.007
16.032
19.739
24.069
28.884
34.016
39.283
44.569
49.841
55.08
60.269
65.372
70.327
75.103
79.706
84.137
88.396
92.481
96.38
100.109
103.716
107.249
110.761
114.29
117.844
121.432
125.062
128.734
132.448
136.192
139.942
143.681
147.396
151.075
154.71
158.285
161.773
165.151
168.395
171.484
174.398
177.115
179.615
181.881
183.899
185.656
187.144
188.35
189.261
189.867
190.157
190.119
189.746
189.028
187.96
186.537
184.757
182.619
180.125
177.28
174.088
170.557
166.695
162.512
158.021
153.235
148.167
142.835
137.255
131.448
125.431
119.226
112.855
106.341
99.708
92.978
86.176
79.325
72.45
65.574
58.722
51.917
45.182
38.539
32.011
25.617
19.378
13.312
7.437
1.768
-3.681
-8.898
-13.87
-18.588
-23.045
-27.234
-31.151
-34.791
-38.153
-41.236
-44.042
-46.573
-48.832
-50.825
-52.557
-54.038
-55.275
-56.278
-57.06
-57.631
-58.004
-58.194
-58.215
-58.081
-57.807
-57.409
-56.903
-56.303
-55.626
-54.888
-54.102
-53.285
-52.452
-51.615
-50.789
-49.985
-49.217
-48.494
-47.827
-47.225
-46.697
-46.25
-45.892
-45.627
-45.462
-45.398
-45.441
-45.589
-45.845
-46.205
-46.668
-47.23
-47.886
-48.63
-49.456
-50.356
-51.322
-52.345
-53.417
-54.525
-55.66
-56.81
-57.963
-59.108
-60.23
-61.319
-62.362
-63.347
-64.264
-65.103
-65.852
-66.504
-67.048
-67.476
-67.781
-67.957
-67.996
-67.894
-67.648
-67.254
-66.713
-66.028
-65.202
-64.239
-63.147
-61.934
-60.607
-59.176
-57.652
-56.041
-54.355
-52.602
-50.797
-48.951
-47.08
-45.2
-43.329
-41.484
-39.681
-37.935
-36.26
-34.669
-33.17
-31.77
-30.478
-29.306
-28.274
-27.398
-26.69
-26.16
-25.812
-25.642
-25.646
-25.81
-26.111
-26.526
-27.033
-27.614
-28.263
-28.984
-29.778
-30.638
-31.543
-32.47
-33.417
-34.388
-35.395
-36.46
-37.603
-38.864
-40.313
-42.016
-44.03
-46.412
-49.193
-52.386
-56.005
-60.037
-64.488
-69.408
-74.766
-80.445
-86.262
-91.888
-97.006
-101.413
-104.825
-106.84
-107.253
-106.063
-103.526
-100.483
-97.734
-95.664
-94.827
-95.944
-99.419
-105.331
-112.482
-117.899
-118.939
-114.378
-105.357
-94.233
-81.908
-66.922
-43.531
-6.201
47.337
116.353
193.153
267.531
328.999
366.53
372.298
340.891
271.493
166.968
34.974
-109.929
-252.265
-373.446
-457.617
-501.331
-508.108
-490.325
-464.315
-437.373
-411.428
-384.293
-350.618
-310.36
-266.921
-223.632
-184.611
-152.155
-126.383
-107.192
-93.981
-85.611
-81.131
-79.892
-80.942
-83.121
-85.45
-86.893
-86.907
-85.63
-83.225
-79.812
-75.702
-71.252
-66.938
-63.379
-60.768
-58.982
-57.902
-57.316
-57.046
-56.927
-56.621
-55.734
-54.076
-51.585
-48.289
-44.294
-39.641
-34.382
-28.644
-22.594
-16.412
-10.215
-4.038
2.103
8.192
14.194
20.053
25.735
31.248
36.593
41.768
46.769
51.582
56.217
60.713
65.117
69.478
73.831
78.186
82.55
86.93
91.327
95.739
100.157
104.555
108.916
113.226
117.475
121.653
125.745
129.727
133.575
137.267
140.781
144.097
147.195
150.057
152.663
155.003
157.064
158.838
160.316
161.487
162.341
162.869
163.065
162.921
162.431
161.593
160.403
158.862
156.973
154.741
152.172
149.274
146.056
142.531
138.711
134.611
130.245
125.633
120.792
115.743
110.506
105.104
99.56
93.897
88.14
82.313
76.441
70.547
64.655
58.789
52.972
47.226
41.574
36.036
30.632
25.381
20.302
15.41
10.721
6.247
2.001
-2.008
-5.771
-9.283
-12.536
-15.53
-18.261
-20.729
-22.936
-24.884
-26.577
-28.022
-29.225
-30.195
-30.941
-31.473
-31.804
-31.945
-31.909
-31.711
-31.363
-30.881
-30.279
-29.572
-28.776
-27.906
-26.975
-25.999
-24.991
-23.967
-22.938
-21.918
-20.918
-19.949
-19.021
-18.144
-17.326
-16.576
-15.899
-15.302
-14.792
-14.371
-14.044
-13.813
-13.679
-13.642
-13.702
-13.857
-14.103
-14.437
-14.853
-15.345
-15.909
-16.537
-17.221
-17.953
-18.724
-19.525
-20.348
-21.181
-22.016
-22.841
-23.646
-24.422
-25.16
-25.851
-26.488
-27.062
-27.566
-27.992
-28.337
-28.592
-28.753
-28.812
-28.767
-28.614
-28.351
-27.977
-27.493
-26.901
-26.207
-25.417
-24.537
-23.577
-22.542
-21.44
-20.28
-19.07
-17.815
-16.523
-15.202
-13.864
-12.522
-11.189
-9.879
-8.6
-7.364
-6.18
-5.059
-4.004
-3.016
-2.096
-1.251
-0.495
0.144
0.647
1.005
1.212
1.265
1.165
0.912
0.523
0.037
-0.509
-1.084
-1.684
-2.318
-2.988
-3.68
-4.365
-5.004
-5.584
-6.115
-6.599
-7.035
-7.426
-7.784
-8.165
-8.68
-9.437
-10.522
-11.987
-13.851
-16.112
-18.824
-22.098
-25.945
-30.278
-34.884
-39.402
-43.558
-47.221
-50.108
-51.778
-52.015
-50.787
-48.497
-46.23
-44.804
-44.575
-46.271
-50.657
-57.747
-67.371
-77.765
-85.07
-87.25
-83.418
-73.296
-58.692
-38.904
-11.561
25.15
73.744
133.725
203.325
278.43
349.819
407.593
437.889
428.267
375.475
280.274
152.508
9.751
-132.373
-255.468
-344.162
-394.796
-409.49
-399.254
-379.835
-358.783
-338.339
-316.098
-286.424
-249.024
-207.253
-165.036
-126.995
-95.614
-71.347
-54.024
-42.667
-36.066
-33.043
-32.481
-33.318
-34.219
-33.936
-31.851
-27.887
-22.369
-15.848
-8.741
-1.416
5.487
11.295
15.688
18.674
20.51
21.559
22.059
22.162
22.137
22.327
22.997
24.322
26.34
28.99
32.237
36.073
40.452
45.287
50.447
55.766
61.116
66.439
71.696
76.872
81.945
86.881
91.653
96.245
100.655
104.881
108.912
112.735
116.35
119.774
123.05
126.242
129.399
132.547
135.705
138.879
142.074
145.297
148.541
151.787
155.02
158.227
161.4
164.537
167.629
170.659
173.609
176.455
179.176
181.754
184.17
186.405
188.441
190.263
191.858
193.219
194.337
195.2
195.796
196.115
196.147
195.883
195.314
194.434
193.235
191.715
189.873
187.71
185.227
182.43
179.323
175.917
172.219
168.243
164.001
159.507
154.777
149.829
144.683
139.357
133.872
128.25
122.514
116.685
110.789
104.847
98.883
92.92
86.979
81.084
75.256
69.517
63.886
58.383
53.027
47.836
42.827
38.014
33.41
29.029
24.879
20.969
17.305
13.893
10.735
7.833
5.186
2.791
0.647
-1.253
-2.915
-4.346
-5.556
-6.555
-7.354
-7.964
-8.398
-8.669
-8.791
-8.778
-8.644
-8.404
-8.072
-7.664
-7.194
-6.676
-6.126
-5.557
-4.984
-4.419
-3.876
-3.367
-2.902
-2.493
-2.148
-1.876
-1.685
-1.581
-1.57
-1.655
-1.842
-2.131
-2.526
-3.025
-3.628
-4.333
-5.138
-6.04
-7.034
-8.117
-9.282
-10.525
-11.839
-13.217
-14.652
-16.135
-17.659
-19.213
-20.79
-22.378
-23.97
-25.553
-27.119
-28.658
-30.163
-31.623
-33.03
-34.377
-35.656
-36.859
-37.982
-39.018
-39.962
-40.81
-41.56
-42.21
-42.762
-43.217
-43.577
-43.844
-44.022
-44.116
-44.131
-44.07
-43.936
-43.733
-43.467
-43.146
-42.777
-42.369
-41.931
-41.478
-41.019
-40.568
-40.135
-39.727
-39.348
-39.005
-38.705
-38.457
-38.276
-38.17
-38.147
-38.214
-38.378
-38.637
-38.984
-39.401
-39.863
-40.352
-40.85
-41.345
-41.83
-42.291
-42.728
-43.144
-43.528
-43.875
-44.186
-44.461
-44.712
-44.978
-45.298
-45.727
-46.343
-47.204
-48.366
-49.886
-51.804
-54.163
-56.988
-60.293
-64.078
-68.346
-73.131
-78.397
-84.007
-89.739
-95.252
-100.144
-104.112
-106.861
-107.97
-107.266
-104.838
-100.94
-96.392
-92.167
-88.843
-86.961
-87.282
-90.16
-95.314
-102.254
-108.678
-110.857
-107.107
-96.437
-78.715
-57.497
-33.499
-3.78
33.472
83.688
149.435
224.562
300.991
365.158
402.501
404.968
367.6
291.965
183.663
50.385
-94.748
-236.732
-357.542
-441.68
-484.353
-490.074
-472.528
-446.204
-418.331
-389.309
-354.496
-311.998
-264.299
-217.403
-178.755
-150.01
-130.533
-117.936
-108.142
-101.494
-98.325
-97.924
-100.336
-103.041
-103.601
-101.544
-96.681
-89.61
-81.35
-72.347
-63.041
-54.311
-46.998
-41.533
-38.033
-36.236
-35.626
-35.85
-36.66
-37.713
-38.666
-39.266
-39.315
-38.719
-37.511
-35.711
-33.323
-30.375
-26.883
-22.892
-18.482
-13.77
-8.885
-3.926
1.051
6.013
10.931
15.771
20.49
25.057
29.472
33.735
37.842
41.784
45.542
49.122
52.556
55.895
59.197
62.497
65.815
69.162
72.546
75.97
79.433
82.922
86.412
89.884
93.325
96.725
100.075
103.36
106.558
109.644
112.594
115.385
117.995
120.404
122.59
124.537
126.229
127.656
128.81
129.681
130.259
130.534
130.496
130.137
129.45
128.43
127.071
125.372
123.331
120.953
118.242
115.204
111.848
108.184
104.223
99.981
95.472
90.713
85.722
80.519
75.125
69.563
63.855
58.024
52.095
46.092
40.041
33.964
27.887
21.833
15.824
9.883
4.033
-1.704
-7.31
-12.764
-18.048
-23.144
-28.036
-32.709
-37.15
-41.348
-45.293
-48.976
-52.39
-55.53
-58.394
-60.979
-63.285
-65.314
-67.068
-68.551
-69.77
-70.731
-71.442
-71.913
-72.153
-72.173
-71.984
-71.598
-71.027
-70.285
-69.384
-68.337
-67.159
-65.862
-64.462
-62.97
-61.401
-59.768
-58.083
-56.36
-54.61
-52.846
-51.078
-49.319
-47.579
-45.868
-44.194
-42.567
-40.994
-39.481
-38.035
-36.66
-35.362
-34.143
-33.006
-31.955
-30.991
-30.114
-29.327
-28.627
-28.014
-27.486
-27.039
-26.671
-26.378
-26.154
-25.994
-25.895
-25.849
-25.852
-25.897
-25.976
-26.083
-26.209
-26.348
-26.489
-26.624
-26.745
-26.843
-26.911
-26.942
-26.928
-26.865
-26.744
-26.562
-26.313
-25.991
-25.593
-25.113
-24.548
-23.894
-23.151
-22.319
-21.398
-20.391
-19.304
-18.142
-16.911
-15.618
-14.27
-12.872
-11.43
-9.95
-8.438
-6.9
-5.345
-3.781
-2.219
-0.672
0.851
2.34
3.789
5.192
6.541
7.833
9.07
10.247
11.359
12.392
13.321
14.126
14.801
15.337
15.731
15.985
16.098
16.084
15.976
15.802
15.587
15.347
15.077
14.776
14.461
14.163
13.928
13.784
13.721
13.733
13.827
14.001
14.265
14.58
14.825
14.889
14.673
14.092
13.138
11.765
9.847
7.317
4.181
0.566
-3.168
-6.675
-9.804
-12.35
-14.013
-14.613
-14.066
-12.628
-11.196
-10.738
-11.777
-14.766
-20.316
-28.582
-39.254
-51.642
-62.84
-69.673
-71.265
-65.839
-53.336
-34.682
-6.07
33.423
82.555
140.922
201.412
259.403
315.264
365.845
410.116
443.673
453.094
428.157
362.947
255.587
117.621
-32.939
-178.531
-298.387
-379.59
-421.478
-428.704
-414.269
-392.101
-367.384
-341.184
-310.966
-272.749
-227.809
-180.201
-134.101
-93.882
-61.688
-37.693
-21.474
-11.98
-7.795
-7.545
-9.868
-13.248
-16.318
-18.024
-17.841
-15.825
-12.364
-7.938
-3.064
1.682
5.711
8.431
9.616
9.472
8.268
6.315
3.915
1.284
-1.249
-3.239
-4.424
-4.719
-4.103
-2.666
-0.467
2.495
6.128
10.275
14.778
19.449
24.179
28.942
33.7
38.419
43.06
47.554
51.872
56.029
60.02
63.845
67.497
70.962
74.255
77.426
80.531
83.631
86.765
89.949
93.195
96.513
99.906
103.377
106.912
110.483
114.07
117.661
121.243
124.808
128.336
131.801
135.177
138.437
141.556
144.513
147.283
149.843
152.173
154.257
156.082
157.635
158.904
159.876
160.537
160.875
160.879
160.54
159.848
158.797
157.38
155.597
153.448
150.936
148.064
144.84
141.272
137.371
133.149
128.622
123.804
118.714
113.37
107.795
102.01
96.039
89.906
83.637
77.258
70.796
64.278
57.73
51.178
44.649
38.168
31.761
25.451
19.263
13.219
7.34
1.647
-3.842
-9.109
-14.14
-18.921
-23.441
-27.689
-31.659
-35.345
-38.743
-41.85
-44.668
-47.198
-49.443
-51.409
-53.102
-54.531
-55.706
-56.638
-57.339
-57.821
-58.1
-58.19
-58.107
-57.866
-57.483
-56.974
-56.355
-55.643
-54.855
-54.005
-53.109
-52.182
-51.24
-50.295
-49.362
-48.452
-47.578
-46.749
-45.977
-45.268
-44.633
-44.076
-43.605
-43.224
-42.936
-42.745
-42.653
-42.66
-42.766
-42.969
-43.268
-43.658
-44.137
-44.699
-45.34
-46.055
-46.837
-47.681
-48.579
-49.526
-50.513
-51.533
-52.578
-53.64
-54.709
-55.778
-56.837
-57.879
-58.895
-59.878
-60.82
-61.713
-62.549
-63.322
-64.023
-64.647
-65.186
-65.633
-65.984
-66.232
-66.375
-66.411
-66.336
-66.149
-65.85
-65.438
-64.914
-64.279
-63.535
-62.682
-61.724
-60.663
-59.505
-58.255
-56.921
-55.511
-54.035
-52.504
-50.928
-49.32
-47.688
-46.045
-44.399
-42.761
-41.139
-39.542
-37.979
-36.461
-35.002
-33.615
-32.313
-31.104
-29.997
-28.996
-28.11
-27.339
-26.679
-26.125
-25.678
-25.346
-25.15
-25.105
-25.216
-25.485
-25.91
-26.486
-27.213
-28.071
-29.024
-30.039
-31.082
-32.146
-33.249
-34.396
-35.58
-36.784
-37.958
-39.076
-40.143
-41.152
-42.088
-42.949
-43.72
-44.43
-45.174
-46.042
-47.123
-48.466
-50.05
-51.859
-53.921
-56.326
-59.159
-62.371
-65.747
-68.998
-71.87
-74.205
-75.809
-76.247
-75.131
-72.447
-68.593
-64.5
-61.151
-59.254
-59.723
-63.678
-71.825
-83.27
-95.55
-105.701
-111.459
-113.875
-115.246
-114.573
-108.263
-89.247
-49.729
11.336
90.254
180.195
270.96
353.569
418.493
455.525
456.718
417.154
338.185
224.648
84.787
-67.714
-218.014
-347.514
-438.878
-486.903
-495.979
-478.691
-450.677
-418.398
-380.681
-335.992
-283.965
-229.626
-182.626
-147.297
-122.717
-106.379
-92.735
-79.645
-69.416
-62.666
-59.938
-60.627
-61.426
-60.32
-56.92
-51.225
-44.088
-36.415
-28.513
-20.76
-13.923
-8.676
-5.302
-3.791
-3.78
-4.758
-6.419
-8.514
-10.698
-12.59
-13.876
-14.357
-13.986
-12.824
-10.922
-8.3
-4.986
-1.05
3.393
8.205
13.229
18.36
23.542
28.722
33.862
38.915
43.82
48.547
53.099
57.483
61.707
65.772
69.669
73.414
77.051
80.636
84.232
87.883
91.608
95.422
99.337
103.359
107.491
111.722
116.025
120.379
124.769
129.18
133.602
138.015
142.392
146.703
150.919
155.013
158.961
162.735
166.308
169.657
172.761
175.602
178.166
180.436
182.395
184.024
185.308
186.232
186.783
186.949
186.717
186.082
185.036
183.579
181.71
179.431
176.746
173.663
170.191
166.341
162.126
157.563
152.667
147.46
141.963
136.2
130.195
123.974
117.565
110.996
104.295
97.491
90.614
83.693
76.756
69.831
62.947
56.132
49.411
42.811
36.355
30.067
23.97
18.083
12.424
7.01
1.856
-3.025
-7.624
-11.93
-15.939
-19.644
-23.044
-26.138
-28.928
-31.417
-33.61
-35.515
-37.14
-38.496
-39.593
-40.445
-41.065
-41.467
-41.666
-41.677
-41.517
-41.2
-40.744
-40.165
-39.477
-38.698
-37.842
-36.925
-35.962
-34.966
-33.951
-32.931
-31.917
-30.921
-29.954
-29.026
-28.145
-27.32
-26.557
-25.863
-25.242
-24.699
-24.236
-23.855
-23.556
-23.34
-23.205
-23.15
-23.171
-23.265
-23.429
-23.658
-23.948
-24.294
-24.69
-25.132
-25.614
-26.13
-26.673
-27.237
-27.816
-28.402
-28.988
-29.569
-30.136
-30.683
-31.204
-31.691
-32.138
-32.537
-32.883
-33.17
-33.389
-33.535
-33.602
-33.584
-33.478
-33.28
-32.987
-32.598
-32.109
-31.52
-30.832
-30.043
-29.154
-28.165
-27.077
-25.891
-24.611
-23.239
-21.781
-20.244
-18.633
-16.958
-15.228
-13.452
-11.637
-9.793
-7.928
-6.049
-4.164
-2.28
-0.407
1.445
3.261
5.029
6.737
8.373
9.927
11.39
12.752
14.01
15.166
16.216
17.158
17.982
18.667
19.2
19.576
19.793
19.853
19.757
19.508
19.122
18.634
18.076
17.478
16.851
16.178
15.457
14.697
13.915
13.145
12.399
11.657
10.913
10.176
9.446
8.726
7.982
7.111
6.018
4.624
2.876
0.775
-1.681
-4.531
-7.839
-11.62
-15.784
-20.113
-24.337
-28.234
-31.688
-34.585
-36.622
-37.504
-37.22
-36.022
-34.533
-33.529
-33.296
-33.862
-35.766
-39.512
-44.96
-51.732
-57.846
-59.886
-56.859
-48.883
-36.688
-23.406
-8.373
12.022
40.763
82.331
136.959
199.588
263.577
319.93
359.606
376.802
368.261
331.701
269.17
182.64
72.796
-51.929
-181.223
-299.792
-386.572
-433.066
-440.179
-417.785
-385.372
-353.622
-325.365
-299.467
-269.656
-234.385
-196.394
-158.573
-124.811
-97.341
-76.087
-60.377
-49.12
-41.144
-35.862
-32.857
-31.424
-30.488
-28.979
-26.407
-22.806
-18.496
-13.702
-8.506
-3.095
2.064
6.3
9.299
11.17
12.152
12.517
12.429
11.968
11.369
11.044
11.298
12.265
13.971
16.327
19.273
22.819
26.908
31.418
36.194
41.057
45.896
50.682
55.397
60.023
64.536
68.887
73.042
77.009
80.79
84.385
87.796
91.01
94.036
96.911
99.693
102.444
105.209
108.007
110.853
113.754
116.717
119.747
122.836
125.965
129.116
132.281
135.451
138.621
141.779
144.906
147.976
150.967
153.856
156.621
159.24
161.693
163.96
166.022
167.867
169.482
170.857
171.975
172.824
173.389
173.658
173.621
173.265
172.581
171.563
170.205
168.506
166.465
164.084
161.366
158.317
154.945
151.258
147.267
142.985
138.425
133.603
128.537
123.245
117.748
112.067
106.225
100.246
94.153
87.972
81.727
75.442
69.142
62.851
56.594
50.394
44.275
38.258
32.365
26.617
21.035
15.634
10.433
5.445
0.684
-3.839
-8.114
-12.133
-15.89
-19.38
-22.601
-25.55
-28.229
-30.638
-32.781
-34.664
-36.292
-37.673
-38.816
-39.732
-40.43
-40.923
-41.224
-41.346
-41.303
-41.109
-40.779
-40.329
-39.772
-39.125
-38.402
-37.618
-36.787
-35.924
-35.041
-34.152
-33.269
-32.405
-31.568
-30.77
-30.019
-29.322
-28.688
-28.123
-27.631
-27.217
-26.885
-26.636
-26.474
-26.399
-26.411
-26.509
-26.69
-26.953
-27.294
-27.707
-28.187
-28.729
-29.325
-29.97
-30.657
-31.377
-32.124
-32.889
-33.664
-34.441
-35.212
-35.967
-36.698
-37.398
-38.058
-38.672
-39.235
-39.741
-40.186
-40.564
-40.872
-41.108
-41.269
-41.353
-41.356
-41.278
-41.118
-40.879
-40.562
-40.169
-39.706
-39.178
-38.595
-37.965
-37.294
-36.591
-35.863
-35.118
-34.365
-33.61
-32.858
-32.115
-31.391
-30.697
-30.044
-29.443
-28.899
-28.42
-28.012
-27.68
-27.427
-27.251
-27.148
-27.117
-27.166
-27.308
-27.562
-27.941
-28.444
-29.071
-29.826
-30.7
-31.68
-32.738
-33.827
-34.918
-36.005
-37.082
-38.157
-39.229
-40.273
-41.269
-42.201
-43.05
-43.816
-44.489
-45.05
-45.512
-45.913
-46.324
-46.873
-47.646
-48.684
-50.038
-51.718
-53.75
-56.231
-59.146
-62.379
-65.792
-69.124
-72.134
-74.718
-76.622
-77.465
-77.147
-75.697
-73.414
-71.115
-69.43
-68.752
-69.755
-73.001
-78.496
-85.948
-94.312
-101.628
-106.339
-106.908
-101.237
-87.663
-64.921
-33.042
5.52
47.72
90.616
132.665
175.242
218.031
258.123
290.357
303.342
286.489
234.654
144.874
24.143
-111.756
-246.566
-360.028
-436.361
-473.708
-477.673
-460.251
-435.126
-406.501
-371.915
-329.771
-280.272
-228.739
-185.082
-153.676
-133.106
-120.426
-109.738
-98.956
-90.966
-86.684
-86.753
-90.297
-93.439
-94.24
-92.52
-88.246
-82.284
-75.481
-68.047
-60.624
-54.295
-49.538
-46.452
-44.946
-44.572
-44.962
-45.962
-47.271
-48.462
-49.274
-49.517
-49.064
-47.97
-46.262
-43.923
-40.988
-37.516
-33.574
-29.283
-24.787
-20.186
-15.545
-10.911
-6.297
-1.73
2.762
7.156
11.437
15.599
19.639
23.545
27.302
30.908
34.379
37.759
41.11
44.479
47.891
51.365
54.904
58.512
62.193
65.935
69.717
73.52
77.328
81.134
84.931
88.708
92.446
96.125
99.718
103.202
106.556
109.759
112.79
115.63
118.263
120.675
122.859
124.804
126.498
127.931
129.09
129.965
130.548
130.829
130.8
130.457
129.795
128.814
127.514
125.899
123.973
121.741
119.212
116.395
113.3
109.939
106.326
102.475
98.401
94.122
89.656
85.02
80.234
75.318
70.291
65.173
59.986
54.749
49.48
44.2
38.928
33.683
28.483
23.346
18.288
13.326
8.476
3.752
-0.834
-5.269
-9.543
-13.647
-17.574
-21.318
-24.874
-28.238
-31.408
-34.384
-37.165
-39.753
-42.15
-44.359
-46.385
-48.232
-49.907
-51.413
-52.759
-53.952
-54.998
-55.906
-56.683
-57.338
-57.879
-58.314
-58.651
-58.899
-59.064
-59.154
-59.175
-59.136
-59.042
-58.898
-58.71
-58.483
-58.219
-57.923
-57.597
-57.243
-56.861
-56.451
-56.013
-55.546
-55.049
-54.52
-53.955
-53.353
-52.71
-52.023
-51.288
-50.5
-49.655
-48.747
-47.772
-46.725
-45.599
-44.391
-43.097
-41.714
-40.237
-38.665
-36.995
-35.225
-33.355
-31.384
-29.312
-27.139
-24.868
-22.5
-20.039
-17.489
-14.858
-12.15
-9.373
-6.536
-3.648
-0.719
2.24
5.217
8.204
11.189
14.159
17.101
20.003
22.851
25.634
28.337
30.944
33.443
35.825
38.081
40.207
42.199
44.052
45.764
47.329
48.744
50.005
51.101
52.018
52.742
53.261
53.573
53.686
53.605
53.328
52.858
52.196
51.348
50.324
49.128
47.752
46.201
44.492
42.658
40.752
38.824
36.917
35.058
33.245
31.486
29.802
28.191
26.639
25.122
23.594
22.019
20.434
18.84
17.166
15.4
13.552
11.658
9.92
8.572
7.702
7.451
8.04
9.387
11.296
13.453
15.063
15.372
14.015
10.611
4.671
-3.776
-14.166
-25.722
-36.059
-41.742
-41.57
-35.195
-23.266
-10.31
2.865
19.966
43.568
80.304
132.412
192.198
251.855
299.622
325.163
325.615
297.333
239.598
152.582
37.837
-93.412
-225.332
-337.026
-409.612
-438.67
-429.779
-398.014
-361.077
-326.682
-296.029
-265.673
-230.09
-189.371
-146.857
-106.404
-72.444
-46.803
-28.822
-17.416
-11.102
-8.368
-8.275
-9.854
-11.654
-12.472
-11.789
-9.524
-6.011
-1.763
2.907
7.679
11.925
14.991
16.579
16.733
15.755
14.014
11.764
9.191
6.599
4.414
2.941
2.322
2.584
3.644
5.446
7.989
11.232
15.063
19.359
23.974
28.778
33.722
38.767
43.865
48.976
54.038
59.001
63.858
68.614
73.264
77.81
82.242
86.555
90.779
94.952
99.117
103.319
107.582
111.913
116.323
120.812
125.379
130.014
134.696
139.393
144.083
148.744
153.357
157.903
162.353
166.677
170.845
174.824
178.585
182.101
185.345
188.291
190.918
193.206
195.141
196.709
197.897
198.691
199.08
199.053
198.599
197.713
196.389
194.623
192.415
189.767
186.685
183.176
179.25
174.922
170.204
165.116
159.676
153.906
147.829
141.469
134.855
128.014
120.976
113.772
106.434
98.995
91.487
83.944
76.398
68.881
61.426
54.062
46.818
39.725
32.808
26.093
19.604
13.365
7.395
1.713
-3.664
-8.721
-13.447
-17.833
-21.873
-25.561
-28.898
-31.884
-34.522
-36.819
-38.783
-40.422
-41.75
-42.78
-43.526
-44.008
-44.243
-44.252
-44.054
-43.673
-43.129
-42.445
-41.643
-40.743
-39.766
-38.732
-37.661
-36.572
-35.48
-34.402
-33.354
-32.351
-31.408
-30.537
-29.75
-29.054
-28.458
-27.969
-27.591
-27.322
-27.158
-27.095
-27.127
-27.249
-27.455
-27.736
-28.083
-28.485
-28.933
-29.421
-29.938
-30.47
-30.994
-31.489
-31.942
-32.354
-32.731
-33.075
-33.388
-33.669
-33.927
-34.176
-34.418
-34.64
-34.811
-34.902
-34.895
-34.793
-34.614
-34.382
-34.099
-33.749
-33.314
-32.781
-32.138
-31.371
-30.442
-29.3
-27.938
-26.391
-24.732
-23.044
-21.374
-19.74
-18.138
-16.56
-15.008
-13.512
-12.092
-10.754
-9.523
-8.432
-7.558
-7.008
-6.819
-6.97
-7.397
-8.024
-8.823
-9.816
-11.026
-12.486
-14.245
-16.331
-18.791
-21.683
-25.025
-28.832
-33.066
-37.641
-42.521
-47.675
-53.121
-58.952
-65.137
-71.515
-77.86
-83.834
-89.137
-93.65
-97.096
-99.024
-99.251
-97.812
-95.17
-92.23
-89.473
-87.137
-85.851
-86.375
-89.221
-93.531
-96.607
-95.91
-90.533
-83.064
-77.645
-74.315
-69.45
-55.573
-24.389
25.186
89.024
161.075
232.769
295.937
343.252
364.341
349.334
295.891
206.551
88.438
-45.586
-184.467
-317.635
-430.522
-511.329
-554.345
-558.349
-530.418
-483.849
-427.912
-371.708
-324.508
-287.306
-260.551
-241.468
-221.085
-196.726
-168.831
-139.534
-115.307
-98.748
-89.002
-85.049
-84.109
-84.106
-84.425
-84.162
-82.875
-80.664
-77.515
-73.506
-68.963
-64.312
-60.099
-57.056
-55.551
-55.49
-56.679
-58.795
-61.507
-64.56
-67.567
-70.059
-71.751
-72.522
-72.348
-71.309
-69.455
-66.796
-63.408
-59.386
-54.84
-49.889
-44.628
-39.144
-33.521
-27.834
-22.165
-16.583
-11.127
-5.819
-0.67
4.329
9.177
13.877
18.447
22.898
27.256
31.552
35.814
40.076
44.365
48.692
53.067
57.489
61.949
66.432
70.918
75.376
79.779
84.105
88.326
92.42
96.363
100.127
103.685
107.008
110.072
112.852
115.331
117.488
119.308
120.777
121.885
122.624
122.987
122.968
122.559
121.756
120.556
118.958
116.963
114.575
111.799
108.643
105.118
101.238
97.019
92.478
87.634
82.508
77.124
71.507
65.681
59.673
53.512
47.225
40.841
34.388
27.895
21.39
14.901
8.454
2.076
-4.209
-10.376
-16.404
-22.271
-27.958
-33.447
-38.721
-43.765
-48.568
-53.118
-57.405
-61.422
-65.164
-68.627
-71.812
-74.717
-77.347
-79.707
-81.803
-83.644
-85.24
-86.603
-87.744
-88.678
-89.417
-89.977
-90.372
-90.615
-90.723
-90.709
-90.588
-90.374
-90.08
-89.72
-89.304
-88.842
-88.345
-87.821
-87.276
-86.717
-86.148
-85.573
-84.997
-84.422
-83.851
-83.285
-82.723
-82.166
-81.61
-81.054
-80.492
-79.92
-79.331
-78.721
-78.082
-77.41
-76.7
-75.947
-75.148
-74.3
-73.402
-72.449
-71.44
-70.37
-69.239
-68.043
-66.779
-65.446
-64.043
-62.574
-61.044
-59.46
-57.827
-56.151
-54.437
-52.688
-50.914
-49.116
-47.291
-45.441
-43.571
-41.694
-39.836
-38.017
-36.248
-34.539
-32.895
-31.322
-29.828
-28.405
-27.027
-25.669
-24.308
-22.943
-21.602
-20.295
-19.027
-17.786
-16.545
-15.295
-14.061
-12.856
-11.679
-10.539
-9.436
-8.415
-7.587
-7.061
-6.931
-7.262
-8.064
-9.338
-11.124
-13.501
-16.492
-20.025
-23.901
-27.819
-31.527
-34.892
-37.741
-39.737
-40.605
-40.263
-38.922
-37.325
-36.295
-36.242
-37.564
-40.903
-46.549
-54.372
-63.894
-72.667
-78.072
-79.334
-74.664
-64.076
-48.065
-23.78
8.118
47.349
94.524
145.892
202.049
261.557
316.489
359.252
376.59
357.018
300.036
209.414
93.948
-34.072
-165.719
-290.564
-393.765
-463.188
-492.28
-482.893
-448.368
-404.587
-361.376
-322.488
-284.944
-243.874
-199.411
-154.563
-113.572
-80.795
-57.226
-41.809
-33.401
-30.271
-30.731
-33.488
-36.789
-38.947
-39.254
-37.545
-33.936
-28.917
-23.035
-16.796
-11.04
-6.647
-3.975
-3.012
-3.479
-4.963
-7.137
-9.736
-12.371
-14.547
-15.928
-16.348
-15.775
-14.29
-11.95
-8.765
-4.782
-0.126
5.065
10.635
16.417
22.333
28.328
34.337
40.311
46.181
51.887
57.412
62.764
67.942
72.942
77.754
82.368
86.81
91.121
95.351
99.555
103.765
107.995
112.261
116.571
120.929
125.331
129.76
134.184
138.584
142.943
147.249
151.489
155.644
159.686
163.591
167.337
170.899
174.256
177.387
180.272
182.893
185.236
187.291
189.049
190.5
191.631
192.434
192.897
193.013
192.773
192.171
191.201
189.861
188.15
186.071
183.628
180.826
177.675
174.182
170.36
166.222
161.781
157.053
152.055
146.805
141.322
135.627
129.741
123.685
117.484
111.16
104.737
98.238
91.686
85.106
78.52
71.951
65.422
58.956
52.573
46.294
40.141
34.133
28.288
22.622
17.152
11.89
6.85
2.041
-2.528
-6.85
-10.919
-14.731
-18.283
-21.573
-24.601
-27.367
-29.874
-32.124
-34.121
-35.87
-37.379
-38.653
-39.7
-40.527
-41.144
-41.558
-41.778
-41.814
-41.675
-41.368
-40.903
-40.292
-39.544
-38.671
-37.682
-36.587
-35.397
-34.122
-32.772
-31.354
-29.877
-28.349
-26.775
-25.165
-23.526
-21.864
-20.187
-18.503
-16.82
-15.147
-13.492
-11.859
-10.256
-8.686
-7.156
-5.667
-4.222
-2.821
-1.468
-0.168
1.071
2.245
3.349
4.381
5.339
6.223
7.03
7.767
8.444
9.068
9.642
10.159
10.602
10.963
11.241
11.439
11.56
11.605
11.583
11.513
11.436
11.386
11.383
11.421
11.483
11.562
11.662
11.802
12.006
12.275
12.603
12.991
13.448
13.979
14.564
15.147
15.626
15.9
15.904
15.615
15.017
14.101
12.838
11.139
9.001
6.535
3.899
1.356
-0.84
-2.529
-3.453
-3.205
-1.556
1.47
5.542
9.804
13.39
15.674
15.925
13.466
8.037
-0.147
-10.105
-19.886
-27.426
-30.678
-27.301
-15.264
7.131
39.915
80.689
126.543
174.081
221.645
270.895
320.903
367.928
405.608
420.871
402.826
346.957
251.69
126.154
-13.251
-150.421
-265.597
-344.717
-386.019
-394.501
-383.079
-364.861
-344.746
-321.403
-290.101
-249.283
-201.42
-152.868
-110.833
-76.057
-48.254
-26.117
-6.396
9.524
20.56
27.362
29.547
28.951
28.055
27.961
29.449
32.639
37.06
42.388
48.403
54.675
60.5
65.138
68.223
69.757
69.992
69.301
67.959
66.199
64.391
62.991
62.302
62.473
63.533
65.399
68.024
71.399
75.463
80.118
85.248
90.722
96.43
102.289
108.222
114.165
120.053
125.813
131.396
136.778
141.944
146.894
151.627
156.133
160.414
164.485
168.371
172.105
175.723
179.258
182.735
186.169
189.569
192.941
196.278
199.57
202.8
205.943
208.979
211.893
214.667
217.284
219.725
221.969
223.994
225.778
227.301
228.546
229.497
230.14
230.466
230.466
230.134
229.468
228.465
227.122
225.436
223.406
221.03
218.309
215.246
211.845
208.111
204.052
199.678
195.002
190.036
184.797
179.3
173.563
167.604
161.442
155.099
148.595
141.953
135.194
128.341
121.416
114.444
107.446
100.444
93.46
86.513
79.624
72.812
66.094
59.486
53.006
46.668
40.486
34.474
28.642
23.003
17.563
12.332
7.313
2.512
-2.069
-6.431
-10.574
-14.499
-18.21
-21.711
-25.008
-28.105
-31.011
-33.732
-36.277
-38.655
-40.874
-42.946
-44.878
-46.681
-48.364
-49.935
-51.403
-52.776
-54.061
-55.265
-56.395
-57.458
-58.462
-59.413
-60.318
-61.182
-62.011
-62.809
-63.58
-64.328
-65.054
-65.759
-66.444
-67.112
-67.764
-68.399
-69.019
-69.625
-70.219
-70.804
-71.381
-71.951
-72.513
-73.068
-73.616
-74.156
-74.687
-75.205
-75.711
-76.209
-76.7
-77.191
-77.682
-78.174
-78.669
-79.168
-79.669
-80.169
-80.663
-81.142
-81.608
-82.068
-82.534
-83.026
-83.553
-84.117
-84.725
-85.379
-86.072
-86.791
-87.508
-88.19
-88.828
-89.424
-89.985
-90.531
-91.061
-91.566
-92.041
-92.466
-92.82
-93.101
-93.291
-93.383
-93.404
-93.396
-93.441
-93.649
-94.083
-94.787
-95.811
-97.144
-98.813
-100.889
-103.333
-106.083
-109.022
-111.878
-114.433
-116.563
-118.022
-118.517
-117.956
-116.338
-114.044
-111.938
-110.747
-111.024
-113.349
-118.088
-125.222
-134.419
-144.527
-153.474
-159.271
-160.138
-154.266
-140.316
-117.55
-85.478
-45.708
-2.114
41.713
81.606
115.776
145.942
170.794
188.523
194.324
177.114
132.063
56.356
-50.039
-173.167
-299.095
-411.611
-490.217
-530.088
-534.982
-512.538
-478.424
-439.499
-393.569
-341.334
-283.665
-225.496
-177.99
-145.776
-126.449
-116.343
-108.728
-100.955
-95.995
-94.831
-97.782
-103.479
-107.956
-109.38
-107.674
-103.045
-96.509
-88.934
-80.715
-72.662
-65.717
-60.225
-56.216
-53.522
-51.766
-50.678
-50.094
-49.696
-49.097
-48.06
-46.423
-44.149
-41.315
-37.951
-34.089
-29.8
-25.191
-20.406
-15.574
-10.777
-6.051
-1.406
3.155
7.619
11.974
16.215
20.324
24.295
28.121
31.786
35.289
38.643
41.873
45.035
48.183
51.353
54.567
57.839
61.17
64.562
68.013
71.503
75.021
78.551
82.084
85.615
89.136
92.631
96.082
99.466
102.759
105.937
108.98
111.864
114.57
117.079
119.374
121.442
123.273
124.853
126.167
127.202
127.944
128.383
128.506
128.303
127.766
126.889
125.667
124.099
122.185
119.927
117.329
114.396
111.135
107.558
103.673
99.495
95.037
90.316
85.349
80.155
74.754
69.168
63.417
57.523
51.511
45.403
39.221
32.989
26.73
20.467
14.222
8.018
1.876
-4.183
-10.139
-15.972
-21.665
-27.2
-32.564
-37.74
-42.718
-47.485
-52.032
-56.35
-60.432
-64.273
-67.867
-71.214
-74.311
-77.161
-79.764
-82.124
-84.245
-86.131
-87.788
-89.222
-90.44
-91.446
-92.249
-92.858
-93.282
-93.53
-93.612
-93.539
-93.32
-92.967
-92.49
-91.9
-91.204
-90.412
-89.533
-88.577
-87.554
-86.472
-85.34
-84.167
-82.965
-81.745
-80.515
-79.283
-78.057
-76.842
-75.644
-74.469
-73.319
-72.194
-71.096
-70.029
-68.999
-68.013
-67.075
-66.187
-65.349
-64.564
-63.834
-63.155
-62.522
-61.924
-61.355
-60.818
-60.324
-59.887
-59.519
-59.216
-58.979
-58.807
-58.695
-58.628
-58.578
-58.497
-58.36
-58.158
-57.894
-57.581
-57.224
-56.808
-56.323
-55.757
-55.097
-54.342
-53.489
-52.531
-51.493
-50.426
-49.4
-48.53
-47.905
-47.574
-47.587
-47.967
-48.698
-49.812
-51.355
-53.284
-55.542
-57.965
-60.241
-62.157
-63.559
-64.151
-63.612
-61.806
-58.722
-54.815
-51.035
-48.041
-46.339
-46.735
-49.724
-55.257
-63.186
-71.504
-77.41
-79.904
-77.079
-68.59
-54.802
-32.975
-3.496
33.369
77.192
123.499
173.008
224.885
274.448
318.033
341.036
327.853
270.466
162.707
15.974
-145.365
-297.222
-411.96
-475.153
-490.207
-467.521
-425.519
-378.69
-333.209
-292.634
-256.019
-224.158
-198.005
-175.226
-155.566
-137.59
-120.657
-107.822
-100.048
-97.244
-98.848
-102.129
-104.926
-106.162
-105.243
-102.401
-98.152
-92.89
-86.952
-80.749
-74.855
-69.867
-66.097
-63.534
-61.951
-61.042
-60.582
-60.412
-60.305
-59.961
-59.157
-57.754
-55.675
-52.943
-49.577
-45.565
-40.946
-35.807
-30.249
-24.422
-18.454
-12.408
-6.33
-0.247
5.831
11.877
17.869
23.802
29.654
35.405
41.039
46.527
51.858
57.04
62.097
67.075
72.02
76.956
81.897
86.848
91.806
96.766
101.718
106.638
111.504
116.303
121.021
125.653
130.189
134.612
138.904
143.041
147.002
150.765
154.31
157.617
160.668
163.449
165.947
168.155
170.066
171.672
172.965
173.936
174.579
174.889
174.861
174.491
173.777
172.717
171.316
169.576
167.506
165.111
162.402
159.39
156.087
152.508
148.666
144.579
140.262
135.735
131.016
126.126
121.086
115.918
110.644
105.287
99.87
94.416
88.946
83.483
78.046
72.656
67.332
62.094
56.959
51.946
47.072
42.352
37.801
33.434
29.262
25.295
21.543
18.012
14.708
11.636
8.799
6.2
3.837
1.713
-0.174
-1.826
-3.245
-4.436
-5.406
-6.161
-6.709
-7.057
-7.215
-7.192
-6.996
-6.639
-6.129
-5.474
-4.684
-3.77
-2.742
-1.612
-0.389
0.914
2.286
3.712
5.18
6.68
8.202
9.736
11.274
12.807
14.328
15.834
17.32
18.78
20.204
21.584
22.91
24.177
25.378
26.508
27.565
28.546
29.453
30.294
31.071
31.783
32.421
32.966
33.407
33.741
33.964
34.078
34.09
34.01
33.866
33.701
33.541
33.395
33.254
33.102
32.926
32.726
32.506
32.275
32.039
31.801
31.574
31.367
31.159
30.907
30.525
29.91
28.99
27.726
26.1
24.098
21.708
18.942
15.801
12.286
8.447
4.351
0.117
-4.008
-7.772
-10.925
-13.096
-13.98
-13.522
-11.849
-9.424
-6.971
-5.109
-4.493
-5.854
-9.583
-15.606
-23.296
-31.287
-38.006
-41.867
-40.947
-33.444
-17.779
6.306
36.834
71.356
107.38
143.815
182.417
223.037
261.774
292.339
304.231
287.692
240.063
161.223
55.467
-64.769
-187.584
-297.538
-376.416
-418.082
-423.312
-400.364
-366.069
-329.652
-294.397
-260.237
-222.012
-179.29
-135.479
-94.199
-60.419
-36.25
-20.763
-12.79
-10.522
-11.891
-15.6
-20.115
-23.468
-24.696
-23.574
-20.144
-15.027
-8.973
-2.455
3.811
8.899
12.403
14.269
14.67
14.058
12.798
11.12
9.352
7.906
7.085
7.076
7.939
9.604
12.011
15.142
18.966
23.396
28.321
33.599
39.078
44.672
50.338
56.028
61.704
67.32
72.812
78.149
83.333
88.357
93.21
97.879
102.342
106.605
110.703
114.681
118.588
122.456
126.296
130.116
133.921
137.713
141.489
145.235
148.921
152.527
156.042
159.453
162.755
165.932
168.961
171.821
174.493
176.957
179.197
181.196
182.938
184.412
185.609
186.523
187.153
187.496
187.545
187.299
186.753
185.905
184.755
183.301
181.545
179.487
177.133
174.488
171.56
168.358
164.892
161.172
157.212
153.025
148.625
144.026
139.246
134.301
129.209
123.988
118.658
113.237
107.746
102.203
96.63
91.045
85.466
79.912
74.4
68.949
63.573
58.29
53.115
48.061
43.143
38.373
33.763
29.325
25.067
20.999
17.128
13.461
10.004
6.762
3.739
0.937
-1.642
-3.998
-6.13
-8.043
-9.739
-11.223
-12.5
-13.579
-14.466
-15.169
-15.697
-16.06
-16.266
-16.328
-16.254
-16.056
-15.744
-15.331
-14.826
-14.242
-13.59
-12.881
-12.126
-11.336
-10.523
-9.697
-8.872
-8.057
-7.264
-6.505
-5.79
-5.131
-4.539
-4.022
-3.587
-3.238
-2.975
-2.798
-2.707
-2.696
-2.762
-2.903
-3.117
-3.408
-3.783
-4.247
-4.806
-5.465
-6.227
-7.098
-8.084
-9.188
-10.418
-11.779
-13.28
-14.928
-16.731
-18.687
-20.784
-22.996
-25.278
-27.582
-29.866
-32.088
-34.216
-36.219
-38.065
-39.723
-41.18
-42.434
-43.493
-44.377
-45.104
-45.671
-46.126
-46.585
-47.139
-47.855
-48.693
-49.424
-49.866
-49.95
-49.512
-48.348
-46.465
-43.948
-41.279
-39.56
-39.674
-42.16
-47.862
-57.493
-70.916
-87.866
-106.532
-122.879
-134.659
-140.716
-140.301
-135.889
-127.403
-111.182
-84.773
-43.03
16.097
86.897
162.256
228.64
271.462
283.185
257.926
198.299
112.002
3.511
-118.22
-243.864
-363.223
-459.379
-519.957
-540.409
-522.612
-477.682
-418.216
-352.524
-287.035
-227.089
-176.493
-138.682
-114.595
-100.022
-90.233
-82.448
-76.059
-73.373
-75.677
-81.654
-88.537
-93.244
-94.39
-92.116
-87.124
-80.437
-72.838
-65.106
-58.364
-53.285
-50.002
-48.418
-48.129
-48.752
-50.058
-51.699
-53.21
-54.275
-54.686
-54.352
-53.343
-51.702
-49.433
-46.573
-43.188
-39.363
-35.226
-30.906
-26.487
-22.025
-17.55
-13.088
-8.67
-4.334
-0.113
3.982
7.95
11.783
15.467
18.986
22.334
25.529
28.618
31.652
34.668
37.685
40.712
43.754
46.814
49.893
52.981
56.054
59.094
62.085
65.02
67.894
70.694
73.404
76
78.461
80.769
82.906
84.854
86.598
88.121
89.413
90.466
91.276
91.84
92.149
92.199
91.984
91.5
90.744
89.714
88.409
86.828
84.975
82.852
80.468
77.828
74.94
71.813
68.458
64.885
61.107
57.136
52.986
48.672
44.21
39.616
34.907
30.099
25.21
20.257
15.257
10.228
5.184
0.143
-4.881
-9.872
-14.815
-19.695
-24.499
-29.213
-33.824
-38.322
-42.695
-46.934
-51.03
-54.976
-58.763
-62.386
-65.839
-69.117
-72.214
-75.126
-77.85
-80.384
-82.726
-84.878
-86.838
-88.609
-90.191
-91.586
-92.798
-93.829
-94.68
-95.353
-95.853
-96.183
-96.347
-96.351
-96.2
-95.901
-95.461
-94.89
-94.194
-93.381
-92.456
-91.426
-90.298
-89.076
-87.764
-86.366
-84.888
-83.338
-81.727
-80.066
-78.366
-76.635
-74.881
-73.112
-71.336
-69.556
-67.769
-65.973
-64.174
-62.382
-60.623
-58.914
-57.267
-55.69
-54.189
-52.768
-51.426
-50.15
-48.905
-47.665
-46.415
-45.165
-43.946
-42.777
-41.671
-40.628
-39.632
-38.685
-37.794
-36.956
-36.168
-35.436
-34.787
-34.288
-34.045
-34.15
-34.674
-35.636
-37.013
-38.797
-40.952
-43.491
-46.489
-49.909
-53.654
-57.614
-61.594
-65.412
-68.926
-71.76
-73.38
-73.577
-72.419
-70.268
-67.809
-65.698
-64.667
-65.75
-70.056
-77.074
-84.784
-91.415
-95.627
-99.385
-106.466
-116.295
-124.231
-121.543
-98.632
-53.387
9.903
83.223
157.027
224.867
279.731
313.558
319.32
290.327
227.376
136.335
22.892
-102.701
-230.776
-350.794
-446.394
-506.575
-527.747
-512.233
-470.902
-414.829
-350.933
-285.62
-225.316
-175.576
-141.026
-122.042
-112.655
-106.439
-99.595
-91.653
-85.948
-84.622
-86.84
-90.012
-90.929
-88.153
-81.988
-73.366
-63.492
-53.237
-43.334
-34.776
-28.178
-23.667
-21.138
-20.149
-20.228
-21.058
-22.282
-23.51
-24.5
-25.108
-25.239
-24.88
-24.026
-22.653
-20.773
-18.41
-15.592
-12.37
-8.83
-5.094
-1.272
2.561
6.364
10.122
13.823
17.447
20.973
24.39
27.694
30.883
33.948
36.877
39.673
42.359
44.981
47.607
50.289
53.056
55.931
58.921
62.033
65.267
68.617
72.06
75.581
79.166
82.806
86.496
90.224
93.971
97.714
101.426
105.081
108.656
112.128
115.472
118.668
121.695
124.537
127.183
129.618
131.827
133.794
135.503
136.939
138.091
138.945
139.491
139.717
139.62
139.194
138.439
137.355
135.946
134.216
132.173
129.825
127.185
124.266
121.08
117.646
113.981
110.104
106.038
101.802
97.42
92.915
88.312
83.636
78.91
74.16
69.409
64.682
60.005
55.4
50.893
46.508
42.266
38.19
34.302
30.621
27.165
23.949
20.987
18.29
15.867
13.725
11.869
10.302
9.025
8.036
7.332
6.907
6.755
6.867
7.233
7.839
8.674
9.722
10.968
12.398
13.994
15.739
17.613
19.596
21.668
23.807
25.992
28.201
30.412
32.602
34.75
36.839
38.851
40.774
42.592
44.296
45.873
47.32
48.64
49.832
50.895
51.824
52.609
53.246
53.733
54.063
54.229
54.219
54.018
53.617
53.015
52.209
51.202
49.98
48.516
46.799
44.818
42.597
40.196
37.668
35.054
32.4
29.732
27.112
24.668
22.424
20.297
18.213
16.048
13.811
11.731
9.898
8.21
6.692
5.479
4.791
5.094
6.582
8.928
11.929
15.585
19.84
24.557
29.237
32.805
34.229
33.083
29.184
22.191
11.588
-2.99
-21.204
-40.931
-58.609
-71.318
-77.659
-79.03
-77.968
-75.153
-68.746
-52.371
-19.645
32.628
104.209
187.089
270.387
341.025
384.715
393.176
361.171
290.954
191.502
70.366
-61.605
-193.976
-318.104
-420.289
-488.951
-518.68
-507.77
-463.688
-400.122
-329.139
-262.959
-208.93
-166.646
-133.547
-104.029
-74.055
-44.724
-18.395
1.032
11.158
13.186
9.369
2.832
-3.426
-7.772
-9.553
-8.753
-5.746
-1.032
4.948
11.63
18.099
23.429
27.13
29.134
29.699
29.209
27.96
26.208
24.341
22.856
22.096
22.216
23.236
25.06
27.617
30.895
34.834
39.308
44.186
49.32
54.577
59.911
65.279
70.628
75.916
81.07
86.037
90.804
95.369
99.723
103.859
107.763
111.425
114.875
118.149
121.291
124.348
127.346
130.296
133.212
136.102
138.967
141.806
144.602
147.329
149.973
152.521
154.962
157.287
159.479
161.516
163.379
165.048
166.507
167.739
168.729
169.464
169.936
170.14
170.071
169.729
169.115
168.225
167.058
165.614
163.893
161.895
159.622
157.077
154.263
151.186
147.856
144.28
140.469
136.435
132.19
127.75
123.128
118.341
113.406
108.34
103.162
97.891
92.546
87.148
81.714
76.265
70.821
65.399
60.018
54.696
49.448
44.291
39.24
34.31
29.516
24.869
20.383
16.068
11.935
7.995
4.256
0.726
-2.589
-5.682
-8.548
-11.184
-13.587
-15.755
-17.691
-19.395
-20.873
-22.126
-23.162
-23.986
-24.606
-25.031
-25.266
-25.321
-25.203
-24.923
-24.491
-23.916
-23.209
-22.381
-21.444
-20.413
-19.3
-18.116
-16.873
-15.583
-14.256
-12.904
-11.535
-10.157
-8.778
-7.409
-6.064
-4.754
-3.492
-2.284
-1.138
-0.062
0.94
1.864
2.713
3.495
4.209
4.849
5.401
5.844
6.164
6.359
6.42
6.339
6.116
5.755
5.28
4.728
4.124
3.47
2.757
1.971
1.102
0.162
-0.832
-1.861
-2.907
-3.965
-5.012
-6.026
-7.003
-7.959
-8.966
-10.141
-11.577
-13.325
-15.412
-17.816
-20.529
-23.617
-27.095
-30.902
-34.921
-38.922
-42.727
-46.297
-49.511
-52.065
-53.737
-54.458
-54.455
-54.423
-54.963
-56.502
-59.749
-65.561
-74.62
-86.156
-97.655
-106.25
-109.339
-108.558
-108.961
-112.755
-120.35
-124.465
-110.411
-68.804
5.079
105.002
211.202
302.713
360.343
373.131
340.892
270.972
173.846
57.137
-69.487
-197.437
-316.566
-411.001
-472.824
-500.349
-498.524
-481.127
-456.375
-427.108
-393.239
-350.735
-300.12
-245.914
-192.779
-146.057
-108.781
-81.465
-63.966
-55.148
-53.241
-56.37
-62.525
-69.671
-76.004
-80.15
-81.384
-79.66
-75.411
-69.324
-62.162
-54.745
-47.91
-42.417
-38.606
-36.384
-35.5
-35.614
-36.401
-37.59
-38.815
-39.632
-39.779
-39.167
-37.792
-35.747
-33.089
-29.819
-26.016
-21.808
-17.327
-12.73
-8.103
-3.459
1.175
5.773
10.301
14.702
18.948
23.052
27.014
30.829
34.492
37.985
41.318
44.531
47.672
50.794
53.934
57.102
60.31
63.567
66.876
70.239
73.643
77.062
80.477
83.876
87.245
90.579
93.859
97.062
100.164
103.14
105.968
108.627
111.095
113.352
115.378
117.159
118.683
119.94
120.919
121.609
121.997
122.075
121.832
121.26
120.352
119.101
117.506
115.564
113.278
110.651
107.688
104.396
100.784
96.863
92.645
88.144
83.376
78.358
73.108
67.647
61.996
56.178
50.217
44.139
37.967
31.728
25.448
19.152
12.865
6.613
0.422
-5.683
-11.678
-17.538
-23.24
-28.76
-34.079
-39.175
-44.032
-48.634
-52.968
-57.02
-60.781
-64.243
-67.399
-70.246
-72.779
-74.998
-76.903
-78.499
-79.79
-80.784
-81.49
-81.919
-82.086
-82.006
-81.697
-81.175
-80.458
-79.564
-78.511
-77.319
-76.004
-74.583
-73.075
-71.502
-69.885
-68.247
-66.607
-64.981
-63.388
-61.843
-60.359
-58.944
-57.604
-56.34
-55.16
-54.079
-53.115
-52.292
-51.623
-51.117
-50.782
-50.623
-50.637
-50.815
-51.13
-51.549
-52.06
-52.661
-53.357
-54.16
-55.067
-56.06
-57.128
-58.237
-59.358
-60.475
-61.559
-62.593
-63.589
-64.569
-65.595
-66.755
-68.105
-69.675
-71.486
-73.495
-75.686
-78.119
-80.786
-83.631
-86.548
-89.295
-91.667
-93.605
-94.973
-95.441
-94.808
-93.083
-90.581
-88.101
-86.362
-85.854
-87.211
-91.295
-98.869
-109.137
-119.701
-127.997
-131.255
-130.369
-129.878
-130.396
-131.47
-128.748
-110.189
-70.735
-9.299
73.73
165.608
253.388
325.188
362.785
355.143
298.78
194.145
54.298
-101.828
-256.595
-391.374
-493.169
-556.138
-579.367
-567.826
-530.109
-476.761
-417.397
-360.971
-313.472
-275.437
-245.163
-217.453
-188.083
-157.517
-128.005
-104.029
-88.811
-81.922
-81.196
-83.392
-85.644
-86.329
-84.896
-81.397
-75.98
-68.987
-60.943
-52.436
-44.366
-37.698
-32.891
-30.04
-28.972
-29.286
-30.608
-32.618
-34.886
-36.913
-38.337
-38.94
-38.641
-37.475
-35.471
-32.632
-28.988
-24.618
-19.609
-14.075
-8.134
-1.879
4.587
11.168
17.792
24.38
30.859
37.178
43.308
49.227
54.932
60.414
65.662
70.678
75.479
80.094
84.559
88.913
93.194
97.428
101.632
105.819
109.992
114.144
118.263
122.329
126.318
130.211
133.991
137.641
141.141
144.471
147.607
150.528
153.208
155.626
157.762
159.599
161.122
162.319
163.182
163.703
163.879
163.706
163.178
162.293
161.047
159.438
157.466
155.133
152.442
149.398
146.01
142.287
138.243
133.893
129.252
124.338
119.17
113.768
108.154
102.35
96.38
90.269
84.042
77.727
71.351
64.942
58.529
52.141
45.804
39.546
33.395
27.374
21.509
15.825
10.345
5.09
0.083
-4.657
-9.111
-13.262
-17.093
-20.592
-23.75
-26.557
-29.01
-31.103
-32.835
-34.207
-35.221
-35.882
-36.193
-36.163
-35.799
-35.114
-34.12
-32.833
-31.27
-29.448
-27.388
-25.115
-22.649
-20.014
-17.231
-14.324
-11.313
-8.222
-5.071
-1.877
1.338
4.554
7.746
10.892
13.971
16.965
19.859
22.636
25.284
27.793
30.159
32.382
34.458
36.377
38.122
39.67
41.007
42.129
43.031
43.71
44.171
44.424
44.499
44.442
44.285
44.038
43.7
43.261
42.719
42.089
41.396
40.667
39.923
39.175
38.446
37.76
37.119
36.504
35.839
35.001
33.894
32.474
30.723
28.668
26.331
23.65
20.61
17.282
13.78
10.304
7.014
3.938
1.191
-0.907
-2.091
-2.252
-1.548
-0.556
0.223
0.431
-0.53
-3.444
-9.069
-16.785
-24.43
-29.753
-30.5
-28.086
-27.096
-28.801
-33.154
-34.293
-19.581
18.156
82.626
170.312
265.702
351.945
412.554
434.891
415.33
358.004
270.243
159.313
35.603
-92.229
-212.691
-308.89
-372.788
-401.961
-401.609
-387.008
-366.894
-344.224
-318.865
-285.468
-243.231
-195.998
-147.732
-103.386
-66.262
-37.249
-16.371
-2.878
4.479
7.186
6.556
3.833
0.618
-1.682
-2.294
-0.909
2.239
6.569
11.64
17.002
21.923
25.678
27.895
28.548
27.903
26.341
24.155
21.592
19.015
16.889
15.538
15.115
15.648
17.058
19.284
22.313
26.08
30.451
35.282
40.413
45.703
51.093
56.534
61.967
67.342
72.588
77.654
82.527
87.206
91.681
95.947
99.989
103.803
107.417
110.87
114.206
117.472
120.692
123.877
127.038
130.18
133.303
136.402
139.455
142.437
145.328
148.116
150.787
153.331
155.725
157.948
159.978
161.794
163.375
164.704
165.764
166.538
167.017
167.191
167.055
166.606
165.839
164.75
163.336
161.593
159.519
157.115
154.38
151.317
147.93
144.224
140.208
135.892
131.286
126.404
121.26
115.869
110.249
104.417
98.392
92.194
85.844
79.362
72.77
66.091
59.349
52.566
45.767
38.975
32.214
25.506
18.875
12.344
5.933
-0.337
-6.446
-12.374
-18.104
-23.617
-28.899
-33.932
-38.705
-43.203
-47.416
-51.333
-54.95
-58.259
-61.258
-63.944
-66.319
-68.382
-70.138
-71.59
-72.744
-73.606
-74.183
-74.485
-74.521
-74.304
-73.847
-73.164
-72.27
-71.184
-69.925
-68.513
-66.964
-65.299
-63.534
-61.69
-59.783
-57.829
-55.841
-53.834
-51.826
-49.836
-47.881
-45.977
-44.137
-42.372
-40.694
-39.111
-37.629
-36.249
-34.966
-33.783
-32.712
-31.772
-30.984
-30.364
-29.916
-29.643
-29.554
-29.642
-29.893
-30.282
-30.76
-31.302
-31.902
-32.559
-33.281
-34.067
-34.886
-35.711
-36.518
-37.277
-37.98
-38.617
-39.159
-39.616
-40.019
-40.436
-40.982
-41.726
-42.691
-43.894
-45.312
-46.985
-49.022
-51.431
-54.183
-57.213
-60.291
-63.228
-65.912
-67.984
-69.059
-69.046
-67.789
-65.46
-62.954
-61.103
-60.793
-63.501
-69.333
-76.567
-84.181
-90.369
-94.887
-102.258
-114.316
-129.767
-144.47
-145.726
-121.903
-67.904
17.379
123.551
233.119
329.21
394.15
416.215
392.47
325.231
221.682
93.371
-45.774
-180.652
-293.515
-371.293
-411.034
-417.322
-404.089
-385.652
-367.627
-350.312
-329.124
-299.159
-261.376
-219.851
-179.132
-143.594
-115.496
-95.092
-82.024
-75.38
-73.797
-75.74
-79.877
-84.766
-88.713
-90.744
-90.481
-87.854
-83.364
-77.697
-71.31
-64.848
-59.152
-54.59
-51.259
-49.135
-47.908
-47.288
-47.103
-47.067
-46.81
-46.124
-44.87
-42.953
-40.406
-37.244
-33.474
-29.173
-24.458
-19.461
-14.303
-9.081
-3.84
1.39
6.58
11.719
16.798
21.819
26.776
31.649
36.414
41.044
45.527
49.864
54.074
58.192
62.25
66.281
70.308
74.34
78.381
82.425
86.461
90.468
94.427
98.323
102.142
105.878
109.521
113.056
116.468
119.737
122.844
125.767
128.486
130.981
133.233
135.226
136.947
138.386
139.534
140.381
140.92
141.141
141.036
140.6
139.826
138.711
137.25
135.443
133.29
130.796
127.963
124.799
121.312
117.511
113.408
109.016
104.348
99.421
94.25
88.853
83.25
77.459
71.502
65.401
59.177
52.855
46.459
40.014
33.545
27.076
20.634
14.241
7.923
1.701
-4.402
-10.363
-16.162
-21.778
-27.192
-32.386
-37.342
-42.045
-46.479
-50.632
-54.493
-58.054
-61.307
-64.246
-66.867
-69.167
-71.145
-72.802
-74.139
-75.159
-75.865
-76.265
-76.365
-76.175
-75.706
-74.97
-73.983
-72.762
-71.325
-69.691
-67.877
-65.901
-63.782
-61.539
-59.188
-56.745
-54.225
-51.643
-49.021
-46.378
-43.734
-41.107
-38.511
-35.96
-33.469
-31.052
-28.716
-26.462
-24.295
-22.222
-20.263
-18.447
-16.794
-15.314
-14.013
-12.894
-11.96
-11.212
-10.634
-10.191
-9.85
-9.587
-9.4
-9.308
-9.316
-9.415
-9.578
-9.767
-9.967
-10.184
-10.419
-10.67
-10.941
-11.239
-11.611
-12.15
-12.95
-14.086
-15.603
-17.497
-19.746
-22.385
-25.509
-29.156
-33.268
-37.635
-41.904
-45.788
-49.112
-51.618
-52.922
-52.769
-51.131
-48.488
-45.885
-44.268
-44.423
-47.258
-53.564
-63.706
-76.789
-90.205
-100.727
-106.056
-106.81
-104.902
-100.773
-92.493
-73.202
-35.939
22.335
100.717
190.604
280.339
357.117
407.704
423.347
398.208
332.289
230.715
101.438
-42.599
-186.705
-314.943
-412.41
-470.351
-487.856
-470.907
-429.686
-375.731
-318.376
-265.662
-223.045
-191.203
-167.884
-147.288
-124.712
-99.835
-74.824
-54.359
-41.374
-35.357
-34.788
-36.992
-39.797
-42.315
-43.731
-43.71
-42.406
-39.954
-36.506
-32.39
-27.961
-23.659
-20.137
-17.704
-16.28
-15.724
-15.816
-16.337
-17.138
-17.948
-18.334
-18.031
-16.937
-15.027
-12.391
-9.084
-5.121
-0.595
4.341
9.521
14.809
20.139
25.503
30.891
36.273
41.612
46.857
51.989
57.009
61.909
66.679
71.304
75.777
80.117
84.367
88.581
92.795
97.024
101.271
105.536
109.817
114.112
118.409
122.685
126.915
131.081
135.169
139.169
143.065
146.836
150.455
153.894
157.133
160.15
162.925
165.439
167.675
169.616
171.254
172.582
173.591
174.274
174.62
174.624
174.277
173.577
172.52
171.101
169.319
167.175
164.673
161.818
158.616
155.074
151.202
147.011
142.515
137.726
132.662
127.338
121.774
115.989
110.003
103.839
97.518
91.062
84.496
77.842
71.123
64.363
57.584
50.81
44.063
37.365
30.739
24.205
17.786
11.501
5.37
-0.589
-6.357
-11.918
-17.255
-22.353
-27.2
-31.781
-36.087
-40.105
-43.828
-47.248
-50.36
-53.162
-55.651
-57.826
-59.69
-61.243
-62.492
-63.44
-64.093
-64.459
-64.544
-64.359
-63.912
-63.216
-62.283
-61.127
-59.764
-58.21
-56.484
-54.601
-52.58
-50.437
-48.19
-45.855
-43.446
-40.98
-38.473
-35.941
-33.406
-30.886
-28.4
-25.965
-23.595
-21.304
-19.106
-17.01
-15.018
-13.134
-11.366
-9.722
-8.226
-6.895
-5.739
-4.764
-3.969
-3.349
-2.901
-2.61
-2.446
-2.379
-2.38
-2.429
-2.538
-2.711
-2.94
-3.211
-3.482
-3.728
-3.954
-4.165
-4.366
-4.571
-4.794
-5.075
-5.5
-6.152
-7.113
-8.445
-10.169
-12.306
-14.855
-17.855
-21.409
-25.51
-30.047
-34.811
-39.439
-43.638
-47.28
-50.077
-51.592
-51.685
-50.383
-48.119
-45.998
-44.804
-44.811
-46.654
-50.984
-57.716
-66.651
-76.011
-81.842
-82.201
-76.564
-65.219
-51.012
-33.558
-9.478
24.059
70.744
129.905
196.292
263.594
322.912
366.207
387.64
380.757
341.261
268.322
161.764
28.544
-115.961
-254.572
-365.919
-434.151
-459.191
-449.177
-418.777
-384.035
-349.404
-312.989
-274.078
-230.585
-186.474
-149.437
-120.787
-101.293
-89.58
-81.454
-77.414
-77.518
-80.361
-85.455
-89.988
-91.71
-90.424
-86.01
-79.073
-70.663
-61.432
-52.215
-44.17
-37.915
-33.584
-31.116
-30.109
-30.106
-30.816
-31.863
-32.803
-33.397
-33.514
-33.07
-32.098
-30.578
-28.458
-25.745
-22.454
-18.614
-14.286
-9.544
-4.494
0.741
6.078
11.46
16.849
22.236
27.602
32.929
38.211
43.43
48.562
53.587
58.476
63.215
67.813
72.293
76.698
81.072
85.437
89.804
94.179
98.553
102.916
107.249
111.521
115.708
119.792
123.754
127.583
131.266
134.778
138.097
141.198
144.052
146.635
148.925
150.899
152.538
153.829
154.758
155.322
155.513
155.326
154.756
153.798
152.451
150.713
148.587
146.073
143.177
139.906
136.271
132.285
127.962
123.319
118.373
113.146
107.658
101.932
95.993
89.865
83.573
77.145
70.608
63.989
57.315
50.615
43.915
37.243
30.625
24.085
17.648
11.336
5.169
-0.832
-6.651
-12.272
-17.679
-22.859
-27.803
-32.498
-36.939
-41.119
-45.035
-48.685
-52.068
-55.187
-58.046
-60.65
-63.005
-65.119
-67.001
-68.66
-70.106
-71.351
-72.405
-73.281
-73.991
-74.547
-74.962
-75.247
-75.416
-75.478
-75.444
-75.325
-75.128
-74.862
-74.534
-74.149
-73.712
-73.228
-72.7
-72.131
-71.523
-70.879
-70.197
-69.479
-68.724
-67.928
-67.092
-66.21
-65.281
-64.301
-63.268
-62.179
-61.034
-59.833
-58.577
-57.266
-55.902
-54.486
-53.02
-51.505
-49.94
-48.326
-46.664
-44.957
-43.208
-41.424
-39.612
-37.78
-35.938
-34.095
-32.256
-30.43
-28.623
-26.836
-25.073
-23.34
-21.646
-20.012
-18.457
-16.995
-15.639
-14.394
-13.259
-12.235
-11.312
-10.47
-9.686
-8.939
-8.21
-7.498
-6.807
-6.139
-5.489
-4.832
-4.145
-3.42
-2.668
-1.91
-1.172
-0.482
0.124
0.584
0.815
0.726
0.227
-0.74
-2.194
-4.127
-6.557
-9.584
-13.259
-17.503
-22.1
-26.696
-30.993
-34.832
-37.978
-39.991
-40.546
-39.617
-37.547
-35.162
-33.162
-32.013
-32.465
-35.381
-41.305
-49.264
-56.65
-60.81
-60.233
-56.808
-53.905
-51.07
-44.19
-25.286
14.163
74.996
151.732
235.537
316.395
387.9
445.249
482.623
491.725
463.787
394.657
284.76
144.056
-9.262
-156.461
-276.727
-356.084
-393.762
-395.686
-375.789
-348.731
-320.091
-291.332
-260.165
-222.724
-180.572
-137.394
-96.921
-63.614
-39.348
-23.614
-15.458
-13.213
-14.995
-19.531
-25.531
-31.237
-35.188
-36.691
-35.628
-32.412
-27.757
-22.193
-16.222
-10.659
-6.293
-3.486
-2.249
-2.303
-3.234
-4.762
-6.691
-8.696
-10.394
-11.515
-11.876
-11.433
-10.252
-8.357
-5.749
-2.472
1.392
5.722
10.352
15.161
20.088
25.09
30.147
35.232
40.305
45.335
50.305
55.204
60.022
64.741
69.335
73.794
78.123
82.354
86.54
90.719
94.91
99.121
103.35
107.593
111.848
116.099
120.318
124.481
128.566
132.559
136.451
140.226
143.865
147.344
150.636
153.716
156.565
159.161
161.484
163.515
165.238
166.642
167.721
168.468
168.874
168.933
168.636
167.979
166.959
165.572
163.817
161.695
159.208
156.362
153.165
149.626
145.758
141.571
137.082
132.305
127.258
121.96
116.428
110.684
104.748
98.642
92.388
86.01
79.531
72.975
66.365
59.726
53.081
46.452
39.862
33.333
26.885
20.538
14.313
8.226
2.297
-3.46
-9.029
-14.395
-19.547
-24.475
-29.169
-33.622
-37.828
-41.784
-45.486
-48.934
-52.126
-55.063
-57.749
-60.185
-62.376
-64.326
-66.043
-67.533
-68.803
-69.862
-70.719
-71.383
-71.864
-72.172
-72.317
-72.311
-72.163
-71.885
-71.487
-70.982
-70.38
-69.692
-68.93
-68.103
-67.222
-66.296
-65.335
-64.347
-63.34
-62.323
-61.302
-60.285
-59.278
-58.286
-57.316
-56.373
-55.461
-54.585
-53.748
-52.954
-52.206
-51.507
-50.858
-50.26
-49.717
-49.227
-48.793
-48.413
-48.088
-47.815
-47.595
-47.424
-47.301
-47.222
-47.185
-47.186
-47.222
-47.289
-47.383
-47.5
-47.636
-47.787
-47.948
-48.117
-48.287
-48.455
-48.617
-48.767
-48.903
-49.021
-49.116
-49.185
-49.224
-49.232
-49.204
-49.139
-49.034
-48.887
-48.699
-48.467
-48.192
-47.875
-47.517
-47.119
-46.685
-46.216
-45.717
-45.191
-44.643
-44.077
-43.5
-42.916
-42.332
-41.753
-41.186
-40.638
-40.114
-39.622
-39.168
-38.757
-38.397
-38.092
-37.849
-37.673
-37.567
-37.538
-37.589
-37.723
-37.943
-38.25
-38.646
-39.13
-39.702
-40.359
-41.098
-41.917
-42.811
-43.775
-44.802
-45.886
-47.02
-48.194
-49.399
-50.625
-51.862
-53.098
-54.323
-55.523
-56.688
-57.806
-58.865
-59.855
-60.765
-61.584
-62.302
-62.91
-63.397
-63.756
-63.979
-64.058
-63.989
-63.767
-63.391
-62.861
-62.179
-61.347
-60.37
-59.251
-57.999
-56.618
-55.115
-53.494
-51.763
-49.931
-48.008
-46.007
-43.941
-41.825
-39.674
-37.506
-35.336
-33.179
-31.046
-28.945
-26.889
-24.887
-22.953
-21.111
-19.381
-17.777
-16.318
-15.013
-13.865
-12.873
-12.023
-11.291
-10.66
-10.107
-9.614
-9.175
-8.779
-8.422
-8.105
-7.808
-7.515
-7.216
-6.903
-6.59
-6.318
-6.121
-6.058
-6.208
-6.627
-7.398
-8.609
-10.322
-12.612
-15.516
-19.015
-23.135
-27.949
-33.454
-39.567
-46.063
-52.5
-58.5
-63.824
-68.165
-71.138
-72.487
-72.162
-70.518
-68.526
-67.115
-66.759
-67.972
-71.375
-77.217
-85.37
-94.159
-100.009
-99.78
-91.893
-77.652
-59.793
-39.556
-16.053
16.37
63.508
127.601
208.852
298.973
384.189
451.095
484.495
475.32
424.472
336.276
218.995
84.154
-58.6
-196.449
-311.81
-391.715
-429.951
-429.462
-404.759
-371.083
-336.914
-305.337
-273.199
-235.989
-194.675
-152.611
-114.036
-83.779
-63.245
-51.374
-46.828
-47.591
-51.565
-57.419
-63.611
-68.129
-69.973
-68.926
-65.074
-59.156
-52.058
-44.335
-36.74
-30.288
-25.423
-22.208
-20.558
-20.026
-20.213
-20.912
-21.796
-22.481
-22.758
-22.497
-21.625
-20.186
-18.192
-15.62
-12.514
-8.942
-4.991
-0.783
3.584
8.035
12.507
16.961
21.373
25.727
30.021
34.262
38.444
42.555
46.578
50.494
54.299
57.999
61.618
65.198
68.779
72.4
76.091
79.867
83.739
87.709
91.77
95.906
100.104
104.353
108.642
112.97
117.329
121.706
126.087
130.453
134.784
139.057
143.251
147.343
151.312
155.138
158.804
162.295
165.597
168.694
171.571
174.211
176.599
178.718
180.554
182.092
183.318
184.221
184.791
185.02
184.903
184.434
183.611
182.434
180.902
179.019
176.79
174.219
171.316
168.09
164.553
160.719
156.601
152.218
147.586
142.725
137.657
132.401
126.98
121.416
115.733
109.952
104.098
98.193
92.262
86.327
80.411
74.538
68.729
63.006
57.389
51.896
46.546
41.354
36.336
31.506
26.874
22.452
18.248
14.27
10.523
7.01
3.735
0.697
-2.104
-4.671
-7.008
-9.119
-11.011
-12.69
-14.165
-15.445
-16.54
-17.46
-18.216
-18.819
-19.283
-19.619
-19.839
-19.957
-19.986
-19.936
-19.822
-19.655
-19.446
-19.206
-18.946
-18.675
-18.403
-18.137
-17.884
-17.652
-17.444
-17.267
-17.124
-17.017
-16.949
-16.921
-16.933
-16.985
-17.077
-17.207
-17.374
-17.574
-17.805
-18.064
-18.346
-18.648
-18.965
-19.293
-19.627
-19.962
-20.293
-20.616
-20.924
-21.214
-21.481
-21.721
-21.93
-22.104
-22.24
-22.336
-22.389
-22.398
-22.36
-22.277
-22.146
-21.969
-21.746
-21.477
-21.164
-20.808
-20.411
-19.975
-19.502
-18.995
-18.456
-17.888
-17.294
-16.677
-16.041
-15.388
-14.723
-14.048
-13.368
-12.687
-12.007
-11.332
-10.666
-10.011
-9.372
-8.75
-8.148
-7.569
-7.015
-6.486
-5.986
-5.514
-5.072
-4.66
-4.279
-3.93
-3.612
-3.325
-3.071
-2.848
-2.657
-2.498
-2.371
-2.276
-2.213
-2.181
-2.181
-2.211
-2.272
-2.364
-2.485
-2.636
-2.816
-3.025
-3.261
-3.526
-3.818
-4.137
-4.482
-4.853
-5.25
-5.672
-6.12
-6.592
-7.09
-7.612
-8.158
-8.728
-9.322
-9.938
-10.575
-11.232
-11.906
-12.596
-13.298
-14.01
-14.729
-15.451
-16.174
-16.894
-17.607
-18.31
-18.998
-19.666
-20.31
-20.925
-21.506
-22.049
-22.548
-22.998
-23.396
-23.738
-24.019
-24.235
-24.384
-24.46
-24.462
-24.386
-24.23
-23.992
-23.67
-23.263
-22.773
-22.202
-21.554
-20.834
-20.046
-19.196
-18.293
-17.342
-16.35
-15.322
-14.262
-13.176
-12.07
-10.954
-9.837
-8.729
-7.64
-6.579
-5.559
-4.587
-3.672
-2.817
-2.023
-1.294
-0.634
-0.053
0.429
0.799
1.048
1.167
1.153
1.01
0.742
0.365
-0.094
-0.614
-1.175
-1.759
-2.367
-2.994
-3.632
-4.271
-4.881
-5.432
-5.917
-6.337
-6.706
-7.056
-7.411
-7.814
-8.332
-9.03
-9.982
-11.261
-12.905
-14.953
-17.434
-20.392
-23.944
-28.155
-32.954
-38.145
-43.374
-48.262
-52.536
-55.882
-57.842
-58.112
-56.699
-53.999
-50.966
-48.648
-47.8
-49.114
-53.26
-60.549
-70.7
-82.618
-94.162
-102.84
-106.256
-102.014
-87.885
-61.84
-23.669
24.25
78.715
135.874
193.891
254.938
318.912
381.159
433.106
460.079
449.342
397.851
308.622
190.622
57.833
-78.409
-206.421
-311.255
-383.063
-417.91
-418.578
-397.6
-368.086
-337.058
-307.193
-276.337
-241.031
-202.183
-162.717
-126.011
-95.989
-74.2
-60.111
-52.639
-50.141
-51.006
-54.127
-58.41
-62.287
-64.371
-64.03
-61.169
-56.191
-49.803
-42.514
-34.77
-27.333
-20.944
-15.938
-12.41
-10.164
-8.807
-8.098
-7.842
-7.742
-7.509
-6.94
-5.91
-4.397
-2.425
0.009
2.891
6.177
9.784
13.593
17.517
21.489
25.446
29.352
33.177
36.899
40.525
44.065
47.52
50.884
54.143
57.275
60.278
63.158
65.933
68.645
71.327
74.01
76.73
79.512
82.367
85.306
88.326
91.411
94.552
97.741
100.97
104.239
107.543
110.871
114.212
117.551
120.872
124.159
127.391
130.548
133.61
136.561
139.383
142.066
144.596
146.958
149.138
151.122
152.895
154.444
155.753
156.81
157.6
158.112
158.337
158.266
157.892
157.211
156.218
154.912
153.291
151.356
149.11
146.557
143.702
140.552
137.115
133.403
129.426
125.197
120.73
116.042
111.147
106.065
100.813
95.409
89.874
84.226
78.485
72.671
66.806
60.908
54.999
49.1
43.23
37.409
31.655
25.988
20.424
14.98
9.672
4.513
-0.483
-5.304
-9.939
-14.377
-18.612
-22.634
-26.438
-30.02
-33.375
-36.503
-39.401
-42.069
-44.51
-46.725
-48.717
-50.491
-52.05
-53.401
-54.551
-55.505
-56.274
-56.863
-57.284
-57.545
-57.656
-57.628
-57.47
-57.194
-56.81
-56.329
-55.762
-55.119
-54.411
-53.649
-52.841
-51.999
-51.131
-50.246
-49.354
-48.461
-47.575
-46.703
-45.853
-45.029
-44.238
-43.484
-42.773
-42.108
-41.493
-40.931
-40.425
-39.976
-39.587
-39.259
-38.991
-38.785
-38.64
-38.556
-38.53
-38.563
-38.651
-38.794
-38.987
-39.23
-39.517
-39.847
-40.216
-40.62
-41.056
-41.52
-42.009
-42.518
-43.045
-43.585
-44.135
-44.692
-45.251
-45.808
-46.361
-46.906
-47.439
-47.957
-48.457
-48.937
-49.393
-49.823
-50.224
-50.595
-50.933
-51.237
-51.506
-51.739
-51.934
-52.092
-52.213
-52.297
-52.343
-52.354
-52.329
-52.27
-52.178
-52.054
-51.9
-51.718
-51.509
-51.276
-51.021
-50.746
-50.455
-50.149
-49.833
-49.509
-49.181
-48.851
-48.524
-48.202
-47.89
-47.591
-47.308
-47.045
-46.806
-46.593
-46.41
-46.258
-46.141
-46.059
-46.016
-46.011
-46.048
-46.125
-46.244
-46.406
-46.609
-46.855
-47.141
-47.468
-47.831
-48.231
-48.663
-49.126
-49.615
-50.128
-50.659
-51.206
-51.763
-52.325
-52.886
-53.44
-53.98
-54.499
-54.991
-55.448
-55.861
-56.225
-56.532
-56.775
-56.948
-57.046
-57.063
-56.992
-56.83
-56.571
-56.213
-55.752
-55.184
-54.508
-53.723
-52.831
-51.833
-50.733
-49.533
-48.237
-46.852
-45.382
-43.833
-42.211
-40.519
-38.763
-36.951
-35.091
-33.194
-31.268
-29.327
-27.383
-25.451
-23.542
-21.669
-19.839
-18.058
-16.335
-14.677
-13.093
-11.598
-10.204
-8.919
-7.754
-6.717
-5.806
-5.017
-4.335
-3.735
-3.204
-2.724
-2.282
-1.873
-1.485
-1.118
-0.776
-0.448
-0.128
0.189
0.507
0.819
1.093
1.292
1.365
1.233
0.844
0.15
-0.903
-2.359
-4.271
-6.668
-9.546
-12.875
-16.658
-20.956
-25.761
-30.971
-36.327
-41.432
-45.942
-49.621
-52.181
-53.209
-52.464
-49.934
-46.068
-41.836
-38.028
-35.233
-34.229
-35.794
-40.371
-47.11
-53.452
-56.32
-53.847
-47.698
-40.947
-34.586
-26.328
-7.938
29.054
88.312
168.259
258.936
348.209
423.267
471.914
487.85
465.6
405.919
314.572
195.405
58.926
-83.171
-218.097
-326.293
-395.41
-422.696
-413.875
-385.532
-352.597
-321.53
-293.04
-262.716
-226.547
-185.753
-143.558
-103.726
-69.887
-43.288
-23.887
-11.128
-3.73
-0.43
-0.416
-2.808
-6.455
-10.251
-13.096
-14.358
-14.08
-12.514
-9.84
-6.316
-2.329
1.645
4.959
7.268
8.649
9.241
9.217
8.783
8.097
7.445
7.272
7.842
9.223
11.427
14.359
17.93
22.103
26.748
31.664
36.709
41.773
46.801
51.81
56.793
61.718
66.564
71.298
75.898
80.371
84.709
88.897
92.941
96.853
100.668
104.449
108.242
112.074
115.963
119.908
123.91
127.97
132.081
136.228
140.394
144.565
148.73
152.884
157.014
161.105
165.136
169.081
172.916
176.62
180.174
183.557
186.75
189.734
192.495
195.023
197.305
199.328
201.078
202.542
203.705
204.556
205.086
205.282
205.137
204.643
203.797
202.596
201.04
199.13
196.867
194.257
191.305
188.02
184.41
180.486
176.261
171.748
166.962
161.922
156.644
151.148
145.455
139.586
133.562
127.407
121.144
114.795
108.382
101.931
95.462
89.001
82.569
76.188
69.88
63.666
57.567
51.602
45.787
40.14
34.675
29.405
24.344
19.501
14.887
10.508
6.371
2.481
-1.158
-4.545
-7.679
-10.562
-13.195
-15.583
-17.729
-19.641
-21.324
-22.788
-24.039
-25.089
-25.946
-26.623
-27.129
-27.476
-27.678
-27.745
-27.692
-27.529
-27.271
-26.928
-26.514
-26.04
-25.517
-24.956
-24.369
-23.765
-23.153
-22.542
-21.941
-21.356
-20.796
-20.265
-19.77
-19.315
-18.903
-18.539
-18.224
-17.961
-17.75
-17.593
-17.49
-17.44
-17.442
-17.496
-17.598
-17.746
-17.938
-18.169
-18.437
-18.738
-19.066
-19.419
-19.792
-20.18
-20.579
-20.985
-21.393
-21.801
-22.203
-22.596
-22.977
-23.342
-23.689
-24.016
-24.32
-24.6
-24.854
-25.081
-25.28
-25.452
-25.596
-25.712
-25.801
-25.866
-25.906
-25.924
-25.923
-25.906
-25.875
-25.835
-25.789
-25.742
-25.698
-25.662
-25.639
-25.634
-25.653
-25.699
-25.778
-25.894
-26.053
-26.258
-26.513
-26.823
-27.189
-27.615
-28.104
-28.658
-29.277
-29.963
-30.717
-31.538
-32.425
-33.377
-34.392
-35.466
-36.597
-37.78
-39.011
-40.284
-41.596
-42.938
-44.303
-45.685
-47.074
-48.463
-49.842
-51.201
-52.53
-53.819
-55.058
-56.239
-57.351
-58.386
-59.335
-60.189
-60.942
-61.586
-62.115
-62.522
-62.803
-62.953
-62.968
-62.849
-62.595
-62.209
-61.693
-61.053
-60.292
-59.418
-58.436
-57.354
-56.175
-54.906
-53.552
-52.124
-50.63
-49.083
-47.497
-45.885
-44.261
-42.641
-41.037
-39.462
-37.927
-36.437
-35.001
-33.628
-32.331
-31.135
-30.057
-29.11
-28.302
-27.638
-27.118
-26.736
-26.483
-26.335
-26.268
-26.264
-26.306
-26.391
-26.524
-26.705
-26.925
-27.158
-27.384
-27.6
-27.819
-28.071
-28.379
-28.765
-29.264
-29.934
-30.852
-32.098
-33.742
-35.831
-38.382
-41.397
-44.919
-49.053
-53.82
-59.131
-64.764
-70.35
-75.587
-80.296
-84.229
-87
-88.349
-88.26
-87.079
-85.636
-84.734
-84.839
-86.37
-89.772
-95.25
-102.614
-111.036
-118.77
-123.886
-124.747
-119.675
-107.069
-85.484
-54.525
-15.577
28.796
75.467
123.332
173.379
225.494
277.889
323.445
351.429
353.488
322.79
259.644
168.454
52.577
-77.721
-211.338
-333.597
-424.23
-475.008
-486.587
-468.76
-441.316
-415.151
-393.063
-373.398
-348.823
-317.169
-281.284
-244.189
-209.987
-180.946
-157.023
-138.065
-123.634
-113.063
-105.826
-101.541
-99.585
-99.027
-98.966
-98.489
-97.052
-94.682
-91.514
-87.604
-83.178
-78.621
-74.413
-71.204
-69.273
-68.441
-68.522
-69.31
-70.588
-72.208
-73.872
-75.119
-75.687
-75.497
-74.53
-72.879
-70.595
-67.658
-64.144
-60.193
-55.949
-51.585
-47.198
-42.806
-38.44
-34.132
-29.917
-25.857
-21.973
-18.245
-14.664
-11.223
-7.916
-4.754
-1.714
1.254
4.205
7.202
10.287
13.48
16.799
20.261
23.876
27.653
31.586
35.656
39.848
44.156
48.572
53.091
57.7
62.377
67.101
71.848
76.598
81.33
86.022
90.651
95.197
99.642
103.971
108.169
112.22
116.105
119.805
123.304
126.581
129.621
132.406
134.919
137.146
139.076
140.698
142.003
142.985
143.639
143.962
143.952
143.61
142.938
141.94
140.622
138.99
137.056
134.83
132.325
129.555
126.536
123.284
119.819
116.159
112.323
108.33
104.203
99.961
95.627
91.222
86.768
82.288
77.802
73.332
68.9
64.526
60.229
56.027
51.936
47.973
44.152
40.485
36.986
33.664
30.528
27.586
24.844
22.306
19.977
17.856
15.945
14.242
12.744
11.449
10.35
9.443
8.72
8.174
7.797
7.578
7.509
7.579
7.776
8.09
8.508
9.019
9.61
10.269
10.984
11.744
12.538
13.353
14.181
15.009
15.83
16.633
17.409
18.152
18.853
19.507
20.107
20.649
21.129
21.544
21.892
22.17
22.379
22.517
22.585
22.584
22.516
22.382
22.186
21.93
21.618
21.254
20.841
20.386
19.892
19.363
18.806
18.224
17.622
17.005
16.378
15.745
15.11
14.478
13.854
13.24
12.64
12.057
11.494
10.954
10.436
9.943
9.476
9.033
8.616
8.223
7.853
7.505
7.177
6.868
6.575
6.294
6.024
5.761
5.501
5.241
4.978
4.708
4.427
4.134
3.824
3.495
3.144
2.768
2.364
1.931
1.465
0.964
0.427
-0.148
-0.762
-1.414
-2.105
-2.833
-3.596
-4.391
-5.217
-6.07
-6.946
-7.842
-8.753
-9.675
-10.603
-11.53
-12.451
-13.359
-14.248
-15.11
-15.94
-16.729
-17.471
-18.161
-18.793
-19.361
-19.859
-20.283
-20.625
-20.883
-21.05
-21.122
-21.095
-20.964
-20.727
-20.382
-19.931
-19.373
-18.713
-17.955
-17.102
-16.16
-15.135
-14.032
-12.856
-11.613
-10.306
-8.941
-7.525
-6.064
-4.569
-3.051
-1.519
0.014
1.539
3.048
4.531
5.982
7.397
8.773
10.103
11.378
12.576
13.68
14.675
15.552
16.306
16.94
17.459
17.874
18.211
18.497
18.758
19.015
19.273
19.528
19.78
20.033
20.312
20.637
21.013
21.424
21.846
22.246
22.593
22.838
22.906
22.699
22.117
21.063
19.473
17.323
14.614
11.329
7.381
2.74
-2.512
-8.166
-13.893
-19.408
-24.536
-29.026
-32.451
-34.49
-35.072
-34.456
-33.327
-32.29
-31.77
-32.428
-35.014
-39.989
-46.598
-52.76
-56.242
-55.627
-52.152
-48.153
-43.127
-33.948
-14.353
22.262
76.446
144.232
218.309
289.53
351.921
399.542
426.607
428.723
399.973
339.734
250.464
135.298
5.831
-126.167
-246.72
-337.484
-391.731
-409.588
-397.947
-372.996
-343.664
-313.134
-281.898
-245.153
-202.545
-157.929
-115.055
-78.815
-51.93
-34.088
-24.307
-21.178
-22.997
-28.169
-35.155
-42.061
-47.164
-49.72
-49.627
-47.104
-42.738
-37.159
-30.895
-24.792
-19.731
-16.04
-13.753
-12.692
-12.488
-12.889
-13.719
-14.649
-15.297
-15.422
-14.861
-13.584
-11.673
-9.15
-6.044
-2.425
1.599
5.879
10.281
14.718
19.146
23.55
27.917
32.227
36.461
40.612
44.662
48.607
52.439
56.14
59.708
63.15
66.491
69.78
73.068
76.387
79.761
83.2
86.709
90.29
93.941
97.648
101.397
105.177
108.976
112.792
116.618
120.441
124.245
128.009
131.712
135.334
138.855
142.255
145.514
148.616
151.544
154.285
156.828
159.159
161.263
163.125
164.73
166.065
167.118
167.874
168.322
168.451
168.255
167.726
166.861
165.656
164.109
162.221
159.994
157.432
154.541
151.327
147.801
143.971
139.85
135.453
130.794
125.89
120.758
115.419
109.89
104.194
98.352
92.385
86.314
80.163
73.953
67.708
61.449
55.198
48.979
42.813
36.721
30.725
24.843
19.095
13.497
8.067
2.819
-2.233
-7.076
-11.701
-16.097
-20.256
-24.172
-27.841
-31.257
-34.42
-37.329
-39.985
-42.389
-44.545
-46.456
-48.13
-49.571
-50.787
-51.786
-52.576
-53.167
-53.569
-53.793
-53.849
-53.748
-53.504
-53.127
-52.631
-52.027
-51.327
-50.546
-49.693
-48.781
-47.823
-46.828
-45.808
-44.773
-43.733
-42.697
-41.673
-40.67
-39.695
-38.753
-37.852
-36.996
-36.19
-35.438
-34.742
-34.107
-33.534
-33.025
-32.581
-32.202
-31.89
-31.644
-31.462
-31.344
-31.288
-31.292
-31.353
-31.469
-31.636
-31.852
-32.112
-32.413
-32.751
-33.123
-33.524
-33.951
-34.4
-34.867
-35.349
-35.842
-36.343
-36.849
-37.359
-37.868
-38.376
-38.881
-39.38
-39.873
-40.358
-40.835
-41.302
-41.758
-42.203
-42.637
-43.059
-43.47
-43.869
-44.258
-44.636
-45.005
-45.365
-45.716
-46.059
-46.395
-46.723
-47.043
-47.356
-47.66
-47.957
-48.244
-48.522
-48.79
-49.046
-49.289
-49.516
-49.725
-49.912
-50.076
-50.212
-50.316
-50.384
-50.413
-50.4
-50.34
-50.232
-50.07
-49.852
-49.575
-49.235
-48.829
-48.354
-47.807
-47.186
-46.49
-45.717
-44.87
-43.952
-42.964
-41.911
-40.796
-39.624
-38.399
-37.125
-35.805
-34.441
-33.037
-31.597
-30.129
-28.639
-27.137
-25.633
-24.137
-22.659
-21.206
-19.787
-18.408
-17.072
-15.781
-14.54
-13.36
-12.259
-11.254
-10.356
-9.575
-8.913
-8.368
-7.935
-7.602
-7.343
-7.135
-6.953
-6.778
-6.607
-6.443
-6.288
-6.137
-5.964
-5.749
-5.49
-5.2
-4.905
-4.633
-4.415
-4.294
-4.341
-4.643
-5.29
-6.37
-7.935
-10
-12.56
-15.634
-19.309
-23.627
-28.509
-33.749
-39.018
-44.039
-48.651
-52.616
-55.514
-57.012
-57.047
-55.893
-54.262
-52.788
-51.879
-52.153
-54.389
-59.103
-65.582
-71.792
-75.428
-75.007
-71.916
-68.65
-64.928
-57.65
-40.214
-5.747
46.757
113.503
187.138
259.279
324.263
376.923
412.08
422.924
401.546
344.422
251.252
128.632
-8.583
-144.748
-261.498
-344.036
-389.71
-402.231
-393.108
-376.689
-358.729
-340.126
-318.318
-288.637
-251.536
-210.69
-169.889
-133.295
-103.35
-80.653
-65.102
-55.938
-52.045
-52.162
-55.126
-59.715
-64.344
-67.613
-68.805
-67.731
-64.667
-60.183
-54.724
-48.732
-42.954
-38.102
-34.514
-32.251
-31.097
-30.707
-30.862
-31.379
-31.962
-32.277
-32.08
-31.21
-29.649
-27.461
-24.674
-21.327
-17.483
-13.245
-8.76
-4.154
0.488
5.123
9.736
14.316
18.843
23.303
27.686
31.975
36.166
40.253
44.219
48.062
51.794
55.436
59.038
62.648
66.297
70.004
73.781
77.626
81.542
85.524
89.554
93.618
97.702
101.794
105.888
109.975
114.04
118.064
122.025
125.897
129.66
133.29
136.766
140.066
143.171
146.061
148.724
151.145
153.309
155.2
156.802
158.1
159.08
159.73
160.037
159.99
159.581
158.804
157.655
156.134
154.238
151.97
149.334
146.334
142.979
139.278
135.24
130.88
126.21
121.248
116.011
110.519
104.791
98.851
92.721
86.425
79.99
73.439
66.799
60.095
53.354
46.602
39.864
33.166
26.532
19.988
13.556
7.26
1.12
-4.844
-10.614
-16.172
-21.504
-26.595
-31.435
-36.011
-40.316
-44.342
-48.084
-51.538
-54.701
-57.574
-60.158
-62.456
-64.471
-66.209
-67.679
-68.886
-69.843
-70.557
-71.043
-71.31
-71.373
-71.245
-70.941
-70.474
-69.859
-69.112
-68.247
-67.279
-66.222
-65.09
-63.897
-62.658
-61.384
-60.088
-58.784
-57.481
-56.192
-54.927
-53.695
-52.504
-51.363
-50.28
-49.259
-48.309
-47.432
-46.634
-45.917
-45.286
-44.742
-44.285
-43.918
-43.639
-43.447
-43.342
-43.321
-43.382
-43.521
-43.737
-44.026
-44.384
-44.808
-45.293
-45.836
-46.431
-47.073
-47.757
-48.477
-49.226
-50
-50.79
-51.592
-52.399
-53.206
-54.006
-54.793
-55.56
-56.302
-57.011
-57.681
-58.306
-58.878
-59.392
-59.842
-60.223
-60.531
-60.761
-60.91
-60.973
-60.948
-60.832
-60.621
-60.313
-59.905
-59.396
-58.785
-58.073
-57.262
-56.353
-55.353
-54.265
-53.096
-51.851
-50.537
-49.16
-47.725
-46.237
-44.7
-43.12
-41.504
-39.857
-38.19
-36.515
-34.842
-33.183
-31.547
-29.943
-28.378
-26.859
-25.385
-23.957
-22.576
-21.249
-19.992
-18.823
-17.753
-16.789
-15.935
-15.183
-14.528
-13.96
-13.445
-12.957
-12.471
-11.964
-11.443
-10.929
-10.426
-9.933
-9.435
-8.905
-8.347
-7.777
-7.195
-6.619
-6.073
-5.594
-5.278
-5.214
-5.475
-6.136
-7.219
-8.725
-10.682
-13.07
-15.907
-19.276
-23.123
-27.322
-31.698
-35.863
-39.482
-42.374
-44.127
-44.281
-42.739
-39.509
-35.097
-30.748
-27.343
-25.357
-25.695
-29.124
-35.571
-44.913
-55.19
-61.965
-63.021
-57.466
-45.048
-29.318
-10.641
14.943
50.149
101.015
169.945
250.361
334.268
406.711
451.899
462.181
431.404
362.429
263.598
140.036
2.595
-137.552
-268.458
-371.844
-436.635
-460.728
-449.694
-419.529
-384.317
-350.232
-318.678
-285.701
-247.439
-205.172
-162.04
-121.752
-88.155
-62.558
-44.347
-32.649
-26.249
-23.836
-24.491
-27.142
-30.077
-31.816
-31.7
-29.532
-25.561
-20.299
-14.063
-7.262
-0.758
4.582
8.315
10.373
11.06
10.781
9.773
8.25
6.548
5.099
4.266
4.232
5.004
6.502
8.659
11.459
14.885
18.847
23.224
27.882
32.678
37.544
42.454
47.367
52.25
57.059
61.733
66.254
70.637
74.883
78.997
82.976
86.806
90.505
94.117
97.689
101.274
104.905
108.593
112.35
116.185
120.101
124.1
128.167
132.276
136.407
140.546
144.679
148.796
152.877
156.893
160.817
164.624
168.287
171.783
175.087
178.173
181.022
183.615
185.936
187.973
189.71
191.133
192.226
192.976
193.372
193.401
193.055
192.324
191.205
189.693
187.788
185.492
182.807
179.741
176.299
172.493
168.333
163.833
159.008
153.874
148.452
142.762
136.826
130.667
124.31
117.78
111.104
104.309
97.422
90.47
83.48
76.48
69.495
62.554
55.681
48.902
42.24
35.719
29.361
23.187
17.215
11.463
5.947
0.68
-4.325
-9.057
-13.508
-17.671
-21.54
-25.113
-28.388
-31.365
-34.047
-36.438
-38.544
-40.37
-41.926
-43.221
-44.266
-45.072
-45.652
-46.021
-46.192
-46.18
-46
-45.67
-45.206
-44.622
-43.936
-43.163
-42.318
-41.416
-40.473
-39.502
-38.518
-37.532
-36.559
-35.609
-34.694
-33.824
-33.008
-32.253
-31.567
-30.953
-30.418
-29.964
-29.593
-29.307
-29.107
-28.993
-28.965
-29.021
-29.157
-29.37
-29.656
-30.009
-30.423
-30.89
-31.404
-31.957
-32.542
-33.151
-33.778
-34.415
-35.054
-35.689
-36.312
-36.916
-37.493
-38.037
-38.541
-38.999
-39.406
-39.76
-40.056
-40.295
-40.476
-40.599
-40.667
-40.68
-40.64
-40.547
-40.403
-40.209
-39.965
-39.672
-39.333
-38.953
-38.538
-38.098
-37.641
-37.176
-36.711
-36.254
-35.812
-35.387
-34.979
-34.587
-34.212
-33.861
-33.549
-33.288
-33.085
-32.944
-32.865
-32.842
-32.867
-32.918
-32.961
-32.962
-32.892
-32.737
-32.511
-32.23
-31.899
-31.521
-31.084
-30.582
-30.034
-29.451
-28.83
-28.183
-27.531
-26.934
-26.509
-26.366
-26.577
-27.191
-28.209
-29.623
-31.47
-33.752
-36.423
-39.469
-42.844
-46.458
-50.266
-54.111
-57.649
-60.599
-62.692
-63.545
-62.937
-60.86
-57.359
-52.886
-48.231
-43.876
-40.169
-37.739
-37.011
-37.829
-39.991
-41.855
-40.183
-33.838
-22.732
-7.502
7.717
22.229
39.675
62.867
98.346
148.952
208.453
269.581
319.493
345.325
342.422
307.248
242.903
155.802
48.898
-69.141
-189.393
-301.191
-387.846
-440.785
-458.585
-445.757
-416.549
-382.916
-349.994
-320.543
-292.155
-260.09
-224.792
-187.516
-149.784
-116.858
-91.005
-72.12
-60.811
-55.173
-53.016
-53.565
-55.275
-56.424
-56.357
-54.675
-51.166
-46.279
-40.52
-34.199
-28.014
-22.897
-19.272
-17.217
-16.577
-16.925
-17.942
-19.431
-21.066
-22.408
-23.118
-23.006
-22.021
-20.243
-17.737
-14.516
-10.608
-6.105
-1.134
4.156
9.604
15.122
20.671
26.2
31.672
37.041
42.247
47.268
52.12
56.805
61.32
65.664
69.82
73.805
77.663
81.447
85.213
89
92.824
96.699
100.638
104.647
108.726
112.862
117.029
121.207
125.383
129.545
133.684
137.783
141.814
145.753
149.575
153.253
156.767
160.093
163.206
166.087
168.72
171.089
173.183
174.988
176.491
177.676
178.529
179.04
179.196
178.987
178.403
177.439
176.089
174.353
172.23
169.724
166.837
163.578
159.955
155.979
151.661
147.018
142.064
136.82
131.303
125.536
119.542
113.343
106.965
100.433
93.773
87.012
80.176
73.292
66.385
59.483
52.611
45.796
39.061
32.431
25.929
19.579
13.401
7.416
1.643
-3.902
-9.203
-14.248
-19.024
-23.522
-27.735
-31.657
-35.284
-38.617
-41.653
-44.397
-46.851
-49.022
-50.915
-52.541
-53.908
-55.028
-55.913
-56.577
-57.032
-57.295
-57.38
-57.303
-57.078
-56.722
-56.25
-55.679
-55.023
-54.299
-53.521
-52.706
-51.868
-51.021
-50.177
-49.35
-48.551
-47.789
-47.072
-46.41
-45.807
-45.269
-44.799
-44.4
-44.076
-43.825
-43.649
-43.545
-43.51
-43.539
-43.628
-43.77
-43.958
-44.186
-44.445
-44.728
-45.029
-45.34
-45.655
-45.966
-46.265
-46.545
-46.798
-47.017
-47.195
-47.324
-47.399
-47.413
-47.364
-47.249
-47.065
-46.811
-46.489
-46.101
-45.649
-45.134
-44.558
-43.925
-43.236
-42.495
-41.708
-40.877
-40.009
-39.113
-38.199
-37.279
-36.362
-35.456
-34.564
-33.691
-32.838
-32.008
-31.201
-30.413
-29.648
-28.917
-28.237
-27.63
-27.117
-26.698
-26.374
-26.14
-25.978
-25.877
-25.822
-25.784
-25.753
-25.735
-25.739
-25.792
-25.912
-26.082
-26.273
-26.44
-26.533
-26.541
-26.463
-26.301
-26.093
-25.88
-25.707
-25.67
-25.837
-26.223
-26.83
-27.585
-28.438
-29.449
-30.654
-32.06
-33.604
-35.079
-36.313
-37.222
-37.587
-37.111
-35.653
-33.12
-29.863
-26.637
-23.918
-22.316
-22.719
-25.661
-31.448
-39.243
-46.187
-49.678
-48.725
-44.707
-41.345
-40.589
-39.698
-30.67
-3.489
48.388
123.109
207.856
284.365
334.62
347.391
323.104
269.221
195.712
109.995
15.543
-84.252
-181.97
-264.914
-322.171
-348.746
-349.084
-336.109
-319.563
-303.699
-287.481
-265.345
-235.641
-200.82
-164.315
-130.536
-102.074
-79.517
-62.996
-52.062
-45.895
-43.405
-43.477
-44.955
-46.441
-46.845
-45.583
-42.379
-37.463
-31.411
-24.685
-17.861
-11.737
-6.828
-3.346
-1.313
-0.465
-0.468
-1.091
-2.055
-3
-3.683
-3.944
-3.672
-2.853
-1.491
0.427
2.883
5.817
9.165
12.844
16.732
20.735
24.789
28.84
32.864
36.852
40.786
44.656
48.464
52.194
55.835
59.376
62.799
66.102
69.298
72.414
75.498
78.598
81.741
84.943
88.214
91.552
94.954
98.409
101.895
105.392
108.886
112.366
115.824
119.248
122.62
125.92
129.122
132.202
135.136
137.901
140.474
142.833
144.962
146.846
148.473
149.834
150.916
151.709
152.201
152.381
152.242
151.777
150.977
149.84
148.362
146.546
144.392
141.908
139.097
135.969
132.534
128.803
124.79
120.509
115.975
111.207
106.224
101.044
95.691
90.186
84.551
78.81
72.987
67.106
61.19
55.263
49.347
43.465
37.637
31.886
26.23
20.69
15.283
10.026
4.936
0.027
-4.687
-9.197
-13.491
-17.562
-21.404
-25.011
-28.38
-31.51
-34.4
-37.053
-39.47
-41.656
-43.616
-45.358
-46.888
-48.217
-49.352
-50.305
-51.086
-51.707
-52.179
-52.513
-52.723
-52.818
-52.812
-52.715
-52.539
-52.296
-51.995
-51.647
-51.261
-50.848
-50.415
-49.97
-49.52
-49.073
-48.632
-48.203
-47.789
-47.392
-47.015
-46.657
-46.318
-45.999
-45.697
-45.41
-45.136
-44.874
-44.62
-44.37
-44.123
-43.874
-43.62
-43.358
-43.086
-42.799
-42.496
-42.173
-41.83
-41.463
-41.07
-40.651
-40.204
-39.729
-39.226
-38.695
-38.136
-37.551
-36.942
-36.312
-35.664
-35.003
-34.332
-33.656
-32.98
-32.312
-31.658
-31.022
-30.406
-29.812
-29.242
-28.698
-28.18
-27.688
-27.223
-26.788
-26.389
-26.035
-25.735
-25.495
-25.32
-25.211
-25.174
-25.211
-25.327
-25.527
-25.814
-26.193
-26.669
-27.246
-27.919
-28.678
-29.496
-30.343
-31.189
-32
-32.75
-33.432
-34.034
-34.553
-34.99
-35.326
-35.554
-35.683
-35.728
-35.723
-35.708
-35.703
-35.762
-35.994
-36.443
-37.095
-37.833
-38.38
-38.472
-37.963
-36.754
-34.775
-32.139
-29.147
-26.331
-24.552
-24.686
-27.312
-32.603
-40.407
-50.121
-60.618
-70.433
-77.618
-79.968
-75.66
-63.659
-43.609
-16.056
17.406
54.608
92.506
127.161
154.674
171.554
175.698
166.995
146.009
114.009
70.548
13.18
-57.038
-136.013
-213.822
-274.754
-309.391
-315.585
-298.82
-272.678
-246.164
-222.253
-200.84
-178.023
-152.851
-127.447
-103.856
-84.432
-70.164
-60.898
-56.027
-54.33
-54.424
-55.025
-55.336
-55.089
-54.031
-51.745
-48.113
-43.305
-37.826
-32.474
-27.669
-23.451
-19.865
-16.956
-14.708
-13.093
-11.899
-10.737
-9.401
-7.837
-6.028
-4.021
-1.836
0.551
3.101
5.734
8.404
11.07
13.716
16.351
18.96
21.526
24.045
26.51
28.929
31.322
33.703
36.09
38.507
40.969
43.487
46.074
48.735
51.479
54.315
57.247
60.282
63.426
66.678
70.04
73.51
77.082
80.746
84.49
88.296
92.152
96.043
99.954
103.869
107.771
111.642
115.462
119.213
122.874
126.423
129.835
133.089
136.163
139.035
141.685
144.095
146.245
148.12
149.704
150.983
151.945
152.579
152.877
152.83
152.432
151.682
150.576
149.116
147.305
145.145
142.645
139.812
136.656
133.19
129.427
125.383
121.073
116.518
111.736
106.748
101.577
96.246
90.779
85.2
79.534
73.805
68.039
62.26
56.492
50.757
45.08
39.481
33.981
28.6
23.357
18.269
13.351
8.619
4.085
-0.238
-4.342
-8.217
-11.857
-15.255
-18.41
-21.317
-23.978
-26.392
-28.562
-30.491
-32.186
-33.653
-34.898
-35.932
-36.762
-37.401
-37.859
-38.148
-38.28
-38.268
-38.125
-37.864
-37.499
-37.043
-36.509
-35.909
-35.256
-34.561
-33.836
-33.092
-32.339
-31.587
-30.844
-30.12
-29.422
-28.757
-28.133
-27.553
-27.022
-26.545
-26.123
-25.758
-25.452
-25.203
-25.013
-24.879
-24.8
-24.773
-24.796
-24.865
-24.974
-25.119
-25.295
-25.495
-25.712
-25.94
-26.172
-26.404
-26.629
-26.843
-27.041
-27.217
-27.367
-27.489
-27.576
-27.627
-27.635
-27.599
-27.515
-27.384
-27.203
-26.974
-26.698
-26.377
-26.016
-25.62
-25.192
-24.736
-24.255
-23.753
-23.235
-22.704
-22.161
-21.611
-21.062
-20.521
-19.996
-19.496
-19.026
-18.59
-18.192
-17.836
-17.52
-17.244
-17.001
-16.794
-16.629
-16.521
-16.489
-16.544
-16.69
-16.933
-17.279
-17.724
-18.262
-18.871
-19.511
-20.163
-20.823
-21.495
-22.19
-22.906
-23.625
-24.322
-24.973
-25.566
-26.087
-26.514
-26.81
-26.957
-26.972
-26.932
-26.953
-27.12
-27.484
-28.067
-28.9
-30.069
-31.628
-33.55
-35.699
-37.817
-39.647
-41.044
-41.855
-41.839
-40.864
-38.948
-36.349
-33.847
-32.361
-32.588
-35.186
-40.731
-49.355
-60.761
-74.087
-87.428
-98.396
-104.802
-104.522
-95.554
-76.572
-47.003
-6.903
41.193
92.77
143.823
189.719
228.433
261.614
287.755
305.121
309.401
289.826
241.783
162.597
52.09
-75.834
-206.855
-323.37
-403.322
-440.403
-437.033
-403.303
-359.475
-316.985
-279.08
-245.153
-209.345
-170.354
-131.688
-97.466
-71.838
-55.948
-48.514
-47.761
-51.474
-57.735
-64.78
-70.549
-73.78
-74.113
-71.572
-66.688
-60.214
-52.822
-45.363
-38.874
-33.902
-30.518
-28.627
-27.868
-27.885
-28.465
-29.285
-29.951
-30.23
-30.005
-29.208
-27.87
-25.998
-23.558
-20.586
-17.152
-13.344
-9.284
-5.069
-0.768
3.563
7.888
12.188
16.449
20.673
24.869
29.033
33.153
37.21
41.184
45.066
48.863
52.597
56.309
60.037
63.818
67.68
71.637
75.694
79.854
84.105
88.427
92.804
97.22
101.663
106.126
110.599
115.066
119.509
123.907
128.234
132.469
136.584
140.555
144.359
147.973
151.378
154.559
157.499
160.181
162.591
164.71
166.522
168.013
169.168
169.973
170.416
170.487
170.178
169.486
168.406
166.939
165.085
162.848
160.234
157.251
153.908
150.217
146.191
141.844
137.195
132.261
127.063
121.622
115.962
110.104
104.076
97.902
91.608
85.219
78.763
72.265
65.751
59.247
52.779
46.373
40.052
33.842
27.766
21.845
16.1
10.55
5.211
0.1
-4.77
-9.388
-13.743
-17.828
-21.636
-25.162
-28.404
-31.361
-34.034
-36.426
-38.541
-40.383
-41.962
-43.284
-44.359
-45.197
-45.81
-46.209
-46.407
-46.418
-46.255
-45.933
-45.466
-44.87
-44.16
-43.352
-42.46
-41.499
-40.484
-39.429
-38.348
-37.253
-36.156
-35.069
-34.003
-32.966
-31.967
-31.014
-30.113
-29.271
-28.491
-27.778
-27.134
-26.56
-26.059
-25.629
-25.271
-24.984
-24.765
-24.614
-24.527
-24.501
-24.532
-24.616
-24.75
-24.928
-25.146
-25.398
-25.679
-25.986
-26.312
-26.653
-27.004
-27.362
-27.723
-28.082
-28.437
-28.784
-29.122
-29.448
-29.762
-30.062
-30.349
-30.624
-30.887
-31.139
-31.383
-31.62
-31.853
-32.083
-32.314
-32.548
-32.789
-33.039
-33.301
-33.579
-33.875
-34.193
-34.536
-34.905
-35.302
-35.729
-36.187
-36.675
-37.194
-37.743
-38.322
-38.929
-39.563
-40.221
-40.9
-41.596
-42.304
-43.02
-43.737
-44.449
-45.148
-45.828
-46.481
-47.099
-47.675
-48.201
-48.671
-49.077
-49.41
-49.665
-49.833
-49.909
-49.887
-49.761
-49.526
-49.179
-48.718
-48.143
-47.456
-46.658
-45.752
-44.741
-43.632
-42.428
-41.134
-39.756
-38.297
-36.763
-35.162
-33.503
-31.795
-30.051
-28.285
-26.51
-24.739
-22.984
-21.254
-19.559
-17.904
-16.295
-14.737
-13.243
-11.832
-10.523
-9.329
-8.263
-7.33
-6.526
-5.849
-5.286
-4.814
-4.411
-4.058
-3.74
-3.458
-3.223
-3.039
-2.904
-2.797
-2.69
-2.579
-2.468
-2.365
-2.294
-2.28
-2.364
-2.62
-3.115
-3.909
-5.065
-6.609
-8.547
-10.904
-13.675
-16.904
-20.701
-25.039
-29.787
-34.728
-39.471
-43.643
-46.989
-49.093
-49.449
-47.926
-44.654
-40.183
-35.695
-32.213
-30.447
-31.241
-35.292
-42.588
-52.568
-63.781
-73.67
-79.646
-79.341
-70.298
-50.161
-18.47
22.995
71.891
124.625
179.27
237.883
299.889
360.332
411.273
438.792
430.389
382.967
298.164
182.965
50.517
-87.899
-219.504
-327.594
-401.575
-437.55
-438.92
-419.052
-391.008
-361.082
-331.055
-297.991
-258.332
-213.425
-166.741
-122.134
-83.915
-54.12
-32.713
-19.117
-12.098
-10.069
-11.818
-16.105
-21.098
-25.11
-27.209
-26.987
-24.591
-20.571
-15.358
-9.43
-3.691
0.928
3.923
5.171
4.928
3.599
1.479
-1.173
-3.958
-6.371
-8.045
-8.8
-8.617
-7.588
-5.78
-3.214
0.064
3.931
8.255
12.891
17.691
22.588
27.535
32.474
37.356
42.117
46.702
51.097
55.313
59.352
63.214
66.896
70.391
73.726
76.943
80.09
83.221
86.368
89.55
92.784
96.085
99.461
102.916
106.438
110.003
113.597
117.209
120.831
124.455
128.065
131.638
135.155
138.596
141.94
145.169
148.264
151.205
153.976
156.564
158.956
161.145
163.116
164.859
166.361
167.609
168.591
169.296
169.715
169.836
169.653
169.158
168.349
167.223
165.778
164.015
161.935
159.543
156.842
153.84
150.543
146.963
143.109
138.996
134.637
130.048
125.246
120.248
115.075
109.747
104.282
98.703
93.029
87.283
81.487
75.661
69.828
64.009
58.225
52.496
46.844
41.287
35.844
30.533
25.369
20.369
15.546
10.912
6.481
2.261
-1.739
-5.51
-9.048
-12.347
-15.405
-18.221
-20.795
-23.129
-25.226
-27.09
-28.728
-30.146
-31.353
-32.356
-33.166
-33.793
-34.248
-34.543
-34.689
-34.699
-34.585
-34.36
-34.037
-33.628
-33.145
-32.602
-32.008
-31.377
-30.72
-30.047
-29.369
-28.696
-28.038
-27.403
-26.8
-26.237
-25.72
-25.256
-24.849
-24.504
-24.224
-24.012
-23.87
-23.8
-23.801
-23.875
-24.02
-24.235
-24.52
-24.872
-25.288
-25.765
-26.301
-26.892
-27.534
-28.225
-28.96
-29.737
-30.551
-31.399
-32.277
-33.183
-34.111
-35.057
-36.018
-36.988
-37.962
-38.937
-39.906
-40.866
-41.813
-42.742
-43.649
-44.531
-45.383
-46.2
-46.98
-47.718
-48.41
-49.051
-49.638
-50.167
-50.634
-51.038
-51.376
-51.645
-51.842
-51.966
-52.014
-51.984
-51.874
-51.68
-51.402
-51.037
-50.584
-50.046
-49.422
-48.716
-47.932
-47.074
-46.149
-45.161
-44.116
-43.019
-41.873
-40.684
-39.454
-38.187
-36.888
-35.565
-34.226
-32.881
-31.54
-30.208
-28.895
-27.603
-26.342
-25.114
-23.918
-22.755
-21.63
-20.555
-19.554
-18.645
-17.839
-17.141
-16.553
-16.074
-15.704
-15.433
-15.232
-15.075
-14.935
-14.799
-14.68
-14.586
-14.513
-14.444
-14.34
-14.181
-13.978
-13.756
-13.521
-13.288
-13.063
-12.869
-12.81
-12.993
-13.513
-14.45
-15.827
-17.651
-19.977
-22.92
-26.529
-30.737
-35.319
-39.899
-44.168
-47.928
-50.944
-52.87
-53.446
-52.677
-50.945
-49.141
-48.194
-48.733
-51.329
-56.486
-64.314
-74.435
-85.774
-96.317
-103.835
-106.237
-101.351
-87.274
-62.48
-26.947
17.096
66.636
118.259
170.12
223.663
278.649
331.048
373.55
393.632
380.22
330.437
246.787
136.978
12.917
-115.509
-237.934
-340.692
-413.525
-451.5
-456.022
-437.635
-408.747
-376.486
-343.899
-309.708
-270.805
-228.099
-184.594
-143.625
-109.267
-83.378
-65.599
-55.037
-50.177
-49.337
-51.318
-54.932
-58.502
-60.62
-60.687
-58.594
-54.69
-49.599
-43.742
-37.556
-31.826
-27.3
-24.307
-22.837
-22.587
-23.164
-24.328
-25.878
-27.488
-28.757
-29.362
-29.142
-28.092
-26.29
-23.793
-20.618
-16.815
-12.494
-7.809
-2.927
2.028
7.004
11.977
16.919
21.796
26.558
31.161
35.594
39.864
43.966
47.895
51.639
55.198
58.6
61.9
65.16
68.421
71.709
75.033
78.401
81.819
85.294
88.817
92.369
95.931
99.491
103.04
106.575
110.085
113.551
116.95
120.259
123.459
126.531
129.458
132.221
134.801
137.185
139.363
141.326
143.064
144.566
145.82
146.814
147.537
147.981
148.136
147.992
147.542
146.782
145.71
144.324
142.625
140.615
138.297
135.678
132.764
129.564
126.086
122.344
118.348
114.112
109.654
104.987
100.131
95.102
89.92
84.605
79.177
73.655
68.061
62.414
56.735
51.045
45.364
39.712
34.11
28.576
23.13
17.791
12.576
7.502
2.583
-2.167
-6.734
-11.107
-15.276
-19.232
-22.969
-26.479
-29.759
-32.805
-35.616
-38.19
-40.529
-42.634
-44.51
-46.159
-47.587
-48.8
-49.804
-50.608
-51.22
-51.647
-51.9
-51.987
-51.921
-51.711
-51.368
-50.904
-50.331
-49.66
-48.904
-48.075
-47.184
-46.243
-45.263
-44.255
-43.231
-42.201
-41.175
-40.162
-39.172
-38.212
-37.291
-36.417
-35.594
-34.83
-34.13
-33.498
-32.938
-32.454
-32.048
-31.724
-31.484
-31.328
-31.259
-31.275
-31.377
-31.564
-31.834
-32.184
-32.612
-33.113
-33.683
-34.318
-35.012
-35.76
-36.556
-37.393
-38.264
-39.162
-40.08
-41.009
-41.941
-42.868
-43.781
-44.672
-45.533
-46.355
-47.131
-47.852
-48.513
-49.106
-49.623
-50.058
-50.404
-50.656
-50.808
-50.856
-50.795
-50.623
-50.336
-49.935
-49.423
-48.799
-48.068
-47.231
-46.294
-45.262
-44.14
-42.932
-41.642
-40.275
-38.838
-37.34
-35.789
-34.195
-32.568
-30.922
-29.269
-27.62
-25.986
-24.374
-22.787
-21.234
-19.719
-18.253
-16.852
-15.528
-14.292
-13.157
-12.131
-11.216
-10.406
-9.687
-9.034
-8.43
-7.859
-7.308
-6.774
-6.253
-5.749
-5.267
-4.8
-4.34
-3.883
-3.425
-2.974
-2.561
-2.224
-2.021
-2.035
-2.331
-2.972
-4.017
-5.516
-7.512
-10.025
-13.073
-16.647
-20.773
-25.527
-30.882
-36.705
-42.749
-48.601
-53.848
-58.18
-61.191
-62.404
-61.68
-59.135
-55.29
-51.269
-48.064
-46.399
-47.128
-50.898
-57.666
-66.878
-77.093
-85.869
-90.77
-89.462
-79.392
-58.233
-25.944
15.167
62.415
112.135
164.298
223.093
287.234
350.669
400.729
418.127
393.063
326.502
227.643
112.275
-9.186
-130.865
-247.055
-349.743
-427.204
-471.389
-481.462
-465.231
-435.577
-400.987
-365.16
-327.653
-285.466
-239.335
-192.334
-147.911
-110.354
-81.732
-61.797
-49.671
-43.793
-42.4
-44.173
-47.765
-51.289
-53.146
-52.625
-49.569
-44.35
-37.683
-30.087
-22.104
-14.683
-8.723
-4.663
-2.588
-2.181
-2.946
-4.561
-6.743
-9.103
-11.216
-12.732
-13.451
-13.35
-12.495
-10.934
-8.69
-5.781
-2.261
1.766
6.196
10.904
15.785
20.775
25.819
30.862
35.857
40.742
45.476
50.055
54.482
58.759
62.883
66.845
70.641
74.303
77.868
81.379
84.887
88.416
91.983
95.603
99.286
103.034
106.842
110.691
114.557
118.421
122.269
126.085
129.858
133.564
137.179
140.682
144.047
147.253
150.278
153.101
155.704
158.071
160.19
162.051
163.646
164.967
166.007
166.757
167.21
167.361
167.205
166.737
165.955
164.856
163.443
161.717
159.684
157.349
154.722
151.812
148.63
145.19
141.503
137.585
133.45
129.112
124.585
119.883
115.017
110.002
104.853
99.579
94.195
88.709
83.132
77.479
71.758
65.98
60.154
54.287
48.388
42.467
36.534
30.598
24.669
18.754
12.863
7.018
1.234
-4.473
-10.089
-15.617
-21.049
-26.375
-31.585
-36.667
-41.606
-46.388
-50.982
-55.336
-59.397
-63.104
-66.409
-69.286
-71.704
-73.642
-75.068
-75.918
-76.153
-75.732
-74.614
-72.791
-70.241
-66.943
-62.993
-58.571
-53.919
-49.39
-45.254
-41.691
-38.972
-37.268
-36.578
-36.876
-37.853
-38.977
-39.921
-40.292
-39.573
-37.567
-34.193
-29.428
-23.82
-18.104
-12.857
-9.025
-7.662
-9.565
-15.599
-26.499
-41.033
-55.58
-65.868
-67.462
-61.367
-56.894
-62.866
-82.031
-102.004
-91.936
-21.475
123.571
329.966
