Name,Waqar Muhammad
Date of Birth,"Jul 5, 1993"
Recorded Date,2024-04-28 18:06:01 -0500
Classification,Sinus Rhythm
Symptoms,
Software Version,1.90
Device,"Watch6,7"
Sample Rate,512 hertz


Lead,Lead I
Unit,µV

-45.89
-49.35
-52.019
-53.279
-52.397
-48.999
-43.315
-35.994
-27.578
-18.433
-8.904
0.575
9.403
17.185
24.007
30.293
36.4
42.45
48.393
54.134
59.73
65.253
70.615
75.606
80.038
83.829
87.014
89.685
91.883
93.581
94.745
95.35
95.377
94.851
93.839
92.391
90.553
88.366
85.855
83.054
79.998
76.696
73.136
69.301
65.172
60.772
56.159
51.399
46.571
41.712
36.814
31.883
26.93
21.966
17.019
12.097
7.201
2.351
-2.413
-7.049
-11.515
-15.787
-19.864
-23.744
-27.43
-30.912
-34.158
-37.149
-39.872
-42.312
-44.463
-46.311
-47.837
-49.038
-49.925
-50.509
-50.802
-50.816
-50.553
-50.024
-49.24
-48.217
-46.974
-45.53
-43.9
-42.105
-40.164
-38.1
-35.934
-33.685
-31.37
-29.003
-26.602
-24.181
-21.758
-19.348
-16.965
-14.621
-12.331
-10.107
-7.961
-5.902
-3.938
-2.078
-0.327
1.308
2.823
4.214
5.479
6.616
7.626
8.509
9.266
9.9
10.415
10.813
11.101
11.282
11.362
11.346
11.24
11.049
10.78
10.437
10.027
9.556
9.03
8.454
7.836
7.181
6.495
5.786
5.059
4.32
3.574
2.827
2.085
1.352
0.635
-0.063
-0.735
-1.377
-1.984
-2.552
-3.075
-3.55
-3.974
-4.343
-4.654
-4.906
-5.095
-5.218
-5.275
-5.262
-5.177
-5.019
-4.788
-4.482
-4.102
-3.647
-3.121
-2.53
-1.876
-1.163
-0.397
0.419
1.277
2.17
3.095
4.047
5.021
6.011
7.009
8.007
8.996
9.972
10.926
11.855
12.752
13.611
14.427
15.201
15.933
16.621
17.258
17.829
18.322
18.73
19.049
19.278
19.417
19.466
19.433
19.338
19.201
19.038
18.866
18.692
18.518
18.349
18.191
18.056
17.97
17.957
18.017
18.145
18.318
18.482
18.612
18.686
18.591
18.16
17.23
15.62
13.287
10.332
6.718
2.335
-2.722
-8.188
-13.603
-18.336
-22.097
-24.955
-26.766
-27.319
-26.648
-25.035
-23.306
-22.69
-24.01
-27.557
-33.56
-42.204
-53.481
-67.009
-81.642
-94.558
-102.028
-101.344
-90.27
-69.933
-44.586
-16.024
14.599
50.765
100.938
169.085
256.436
357.368
457.028
539.79
589.686
593.911
547.81
453.43
317.711
152.383
-27.643
-206.308
-364.851
-486.109
-560.742
-589.159
-581.786
-553.668
-515.746
-471.125
-418.689
-357.331
-291.056
-228.959
-178.273
-141.69
-116.087
-95.619
-77.006
-60.148
-47.405
-40.561
-39.209
-41.226
-43.747
-44.948
-44.034
-40.973
-36.358
-30.678
-24.334
-17.992
-12.241
-7.614
-4.684
-3.541
-3.925
-5.526
-7.937
-10.751
-13.635
-16.215
-18.086
-19.042
-19.03
-18.06
-16.233
-13.633
-10.315
-6.381
-1.974
2.765
7.691
12.671
17.627
22.491
27.185
31.66
35.869
39.789
43.431
46.815
49.959
52.886
55.625
58.208
60.684
63.11
65.545
68.053
70.684
73.472
76.45
79.64
83.055
86.704
90.584
94.68
98.986
103.493
108.191
113.072
118.121
123.319
128.646
134.079
139.594
145.167
150.775
156.393
161.997
167.562
173.063
178.479
183.783
188.947
193.942
198.739
203.308
207.619
211.644
215.354
218.721
221.721
224.33
226.526
228.29
229.603
230.451
230.818
230.694
230.069
228.939
227.299
225.149
222.49
219.328
215.672
211.531
206.919
201.851
196.347
190.426
184.112
177.428
170.403
163.064
155.442
147.569
139.478
131.201
122.775
114.234
105.613
96.947
88.272
79.621
71.029
62.527
54.149
45.924
37.882
30.051
22.456
15.122
8.07
1.321
-5.107
-11.2
-16.943
-22.327
-27.343
-31.984
-36.247
-40.13
-43.633
-46.759
-49.513
-51.901
-53.933
-55.618
-56.968
-57.997
-58.719
-59.151
-59.309
-59.211
-58.877
-58.324
-57.573
-56.644
-55.559
-54.337
-53
-51.566
-50.058
-48.493
-46.891
-45.269
-43.646
-42.036
-40.456
-38.92
-37.44
-36.03
-34.7
-33.459
-32.317
-31.28
-30.355
-29.546
-28.858
-28.293
-27.853
-27.538
-27.349
-27.284
-27.341
-27.517
-27.809
-28.21
-28.716
-29.319
-30.013
-30.789
-31.638
-32.554
-33.527
-34.546
-35.604
-36.69
-37.795
-38.91
-40.024
-41.128
-42.212
-43.267
-44.284
-45.254
-46.169
-47.019
-47.799
-48.5
-49.117
-49.643
-50.072
-50.4
-50.621
-50.733
-50.733
-50.619
-50.391
-50.049
-49.595
-49.034
-48.37
-47.61
-46.758
-45.821
-44.808
-43.726
-42.584
-41.388
-40.145
-38.864
-37.556
-36.232
-34.904
-33.582
-32.278
-31.004
-29.774
-28.6
-27.49
-26.447
-25.478
-24.59
-23.794
-23.107
-22.538
-22.091
-21.773
-21.589
-21.538
-21.615
-21.802
-22.071
-22.398
-22.765
-23.163
-23.59
-24.035
-24.483
-24.92
-25.33
-25.712
-26.068
-26.387
-26.667
-26.927
-27.21
-27.593
-28.174
-29.024
-30.193
-31.738
-33.718
-36.201
-39.261
-42.932
-47.208
-52.089
-57.604
-63.77
-70.54
-77.698
-84.879
-91.699
-97.817
-102.91
-106.622
-108.599
-108.633
-106.969
-104.232
-101.094
-98.304
-96.593
-96.635
-99.282
-104.567
-110.807
-115.779
-117.031
-113.488
-106.949
-99.273
-90.765
-78.737
-57.201
-18.79
41.723
124.546
226.124
336.257
440.735
526.559
579.704
590.301
552.837
462.056
317.78
126.371
-96.106
-321.703
-518.373
-658.643
-729.924
-738.062
-699.096
-633.66
-558.466
-481.798
-410.993
-350.756
-301.956
-265.118
-235.126
-204.961
-172.865
-139.502
-109.034
-87.185
-74.991
-70.867
-72.196
-75.275
-78.163
-80.067
-80.082
-78.085
-74.311
-68.975
-62.642
-56.011
-49.644
-44.195
-40.335
-38.263
-37.824
-38.722
-40.521
-42.803
-45.211
-47.332
-48.737
-49.203
-48.672
-47.169
-44.805
-41.671
-37.836
-33.412
-28.55
-23.388
-18.057
-12.682
-7.33
-2.071
3.012
7.865
12.443
16.725
20.72
24.453
27.938
31.2
34.274
37.194
40.008
42.771
45.537
48.365
51.3
54.376
57.621
61.056
64.693
68.536
72.581
76.812
81.22
85.793
90.518
95.384
100.372
105.463
110.635
115.864
121.126
126.396
131.652
136.868
142.023
147.091
152.049
156.875
161.546
166.034
170.314
174.357
178.138
181.628
184.803
187.638
190.108
192.192
193.869
195.123
195.937
196.298
196.193
195.613
194.552
193.004
190.967
188.443
185.433
181.944
177.983
173.56
168.69
163.387
157.668
151.553
145.064
138.223
131.057
123.592
115.856
107.878
99.689
91.321
82.805
74.173
65.459
56.696
47.916
39.151
30.432
21.791
13.256
4.857
-3.381
-11.432
-19.271
-26.876
-34.227
-41.305
-48.093
-54.575
-60.74
-66.575
-72.072
-77.223
-82.025
-86.474
-90.569
-94.311
-97.704
-100.751
-103.458
-105.835
-107.889
-109.632
-111.075
-112.231
-113.115
-113.742
-114.127
-114.287
-114.24
-114.002
-113.591
-113.026
-112.323
-111.5
-110.576
-109.567
-108.49
-107.362
-106.199
-105.016
-103.829
-102.652
-101.497
-100.377
-99.303
-98.287
-97.337
-96.462
-95.67
-94.965
-94.356
-93.845
-93.436
-93.132
-92.933
-92.841
-92.855
-92.974
-93.194
-93.512
-93.925
-94.427
-95.013
-95.678
-96.415
-97.215
-98.072
-98.977
-99.923
-100.898
-101.895
-102.901
-103.908
-104.905
-105.882
-106.827
-107.732
-108.584
-109.375
-110.095
-110.735
-111.287
-111.742
-112.093
-112.334
-112.459
-112.464
-112.344
-112.097
-111.721
-111.218
-110.589
-109.836
-108.962
-107.97
-106.866
-105.654
-104.343
-102.935
-101.438
-99.858
-98.206
-96.493
-94.73
-92.926
-91.095
-89.249
-87.404
-85.575
-83.772
-82.001
-80.271
-78.595
-76.984
-75.458
-74.026
-72.69
-71.455
-70.326
-69.304
-68.387
-67.559
-66.791
-66.059
-65.347
-64.651
-63.97
-63.292
-62.6
-61.876
-61.107
-60.297
-59.461
-58.598
-57.709
-56.816
-55.956
-55.215
-54.698
-54.482
-54.627
-55.173
-56.156
-57.639
-59.684
-62.325
-65.57
-69.376
-73.706
-78.604
-84.067
-89.977
-96.127
-102.136
-107.574
-112.121
-115.423
-116.995
-116.489
-113.778
-108.962
-102.567
-95.436
-88.469
-82.678
-79.328
-78.759
-79.957
-81.7
-82.157
-80.923
-80.087
-80.71
-82.003
-79.525
-65.239
-31.491
26.399
107.566
207.175
316.75
424.705
519.378
586.593
612.476
587.367
505.583
369.796
191.229
-12.395
-217.615
-400.482
-540.201
-624.251
-651.557
-629.455
-574.559
-505.396
-436.427
-380.054
-338.088
-305.618
-277.078
-243.482
-202.662
-158.757
-116.399
-82.428
-59.864
-47.039
-41.54
-40.272
-40.941
-42.533
-44.209
-45.086
-44.384
-41.857
-37.713
-32.292
-26.181
-20
-14.25
-9.541
-6.34
-4.648
-4.264
-4.914
-6.221
-7.852
-9.485
-10.716
-11.207
-10.809
-9.489
-7.296
-4.327
-0.648
3.657
8.451
13.573
18.862
24.183
29.457
34.64
39.676
44.508
49.083
53.374
57.383
61.131
64.634
67.907
70.966
73.844
76.594
79.274
81.948
84.68
87.516
90.491
93.637
96.979
100.531
104.304
108.294
112.488
116.879
121.463
126.231
131.173
136.274
141.512
146.866
152.314
157.829
163.388
168.964
174.532
180.068
185.548
190.946
196.24
201.402
206.406
211.221
215.818
220.166
224.236
227.997
231.421
234.48
237.148
239.402
241.221
242.584
243.474
243.877
243.778
243.169
242.041
240.39
238.214
235.514
232.295
228.564
224.331
219.609
214.413
208.762
202.676
196.177
189.291
182.043
174.462
166.579
158.425
150.033
141.439
132.676
123.781
114.79
105.74
96.667
87.607
78.594
69.662
60.846
52.176
43.684
35.398
27.345
19.549
12.035
4.822
-2.07
-8.627
-14.834
-20.681
-26.158
-31.259
-35.98
-40.32
-44.279
-47.86
-51.069
-53.911
-56.397
-58.537
-60.343
-61.83
-63.013
-63.909
-64.535
-64.911
-65.056
-64.992
-64.738
-64.317
-63.75
-63.058
-62.263
-61.385
-60.447
-59.466
-58.463
-57.456
-56.461
-55.496
-54.575
-53.712
-52.92
-52.208
-51.588
-51.065
-50.648
-50.341
-50.146
-50.065
-50.101
-50.251
-50.515
-50.89
-51.37
-51.951
-52.628
-53.392
-54.235
-55.147
-56.12
-57.141
-58.201
-59.287
-60.388
-61.491
-62.584
-63.655
-64.694
-65.688
-66.625
-67.495
-68.287
-68.993
-69.604
-70.112
-70.512
-70.799
-70.969
-71.021
-70.956
-70.775
-70.478
-70.069
-69.549
-68.926
-68.201
-67.38
-66.467
-65.467
-64.39
-63.247
-62.046
-60.799
-59.516
-58.21
-56.894
-55.582
-54.282
-52.999
-51.741
-50.517
-49.341
-48.23
-47.195
-46.243
-45.382
-44.617
-43.951
-43.378
-42.885
-42.444
-42.034
-41.639
-41.252
-40.873
-40.495
-40.106
-39.696
-39.254
-38.78
-38.279
-37.747
-37.181
-36.607
-36.065
-35.627
-35.386
-35.411
-35.753
-36.47
-37.613
-39.235
-41.397
-44.135
-47.45
-51.348
-55.847
-60.937
-66.565
-72.557
-78.593
-84.299
-89.32
-93.305
-95.92
-96.898
-96.071
-93.582
-89.963
-85.952
-82.291
-79.613
-78.515
-79.478
-82.814
-88.405
-94.608
-98.471
-97.179
-88.064
-71.459
-50.803
-28.062
-4.972
21.484
59.843
115.544
192.2
286.02
382.555
465.424
517.568
525.302
483.703
394.62
263.559
101.092
-77.291
-254.772
-410.836
-526.266
-592.071
-608.018
-582.692
-532.275
-471.049
-408.712
-353.505
-308.134
-271.381
-242.32
-215.952
-187.288
-156.157
-123.33
-92.138
-67.499
-50.374
-39.817
-34.398
-31.424
-29.435
-28.1
-26.722
-24.736
-21.974
-18.328
-13.861
-8.991
-4.096
0.571
4.577
7.507
9.304
10.095
10.077
9.599
8.971
8.421
8.264
8.807
10.181
12.427
15.513
19.324
23.771
28.78
34.22
39.944
45.811
51.685
57.482
63.153
68.636
73.885
78.865
83.551
87.953
92.095
95.997
99.682
103.184
106.533
109.776
112.967
116.159
119.41
122.764
126.253
129.905
133.738
137.764
141.99
146.413
151.019
155.8
160.746
165.843
171.083
176.449
181.919
187.473
193.086
198.734
204.392
210.037
215.642
221.182
226.633
231.969
237.165
242.196
247.034
251.649
256.013
260.095
263.868
267.304
270.376
273.058
275.326
277.16
278.539
279.448
279.869
279.79
279.201
278.094
276.462
274.305
271.622
268.417
264.695
260.465
255.738
250.528
244.853
238.73
232.181
225.23
217.902
210.224
202.227
193.94
185.396
176.629
167.672
158.561
149.331
140.017
130.655
121.281
111.929
102.632
93.423
84.335
75.397
66.638
58.085
49.763
41.695
33.904
26.407
19.222
12.363
5.844
-0.326
-6.138
-11.587
-16.67
-21.384
-25.73
-29.712
-33.334
-36.604
-39.529
-42.12
-44.39
-46.35
-48.017
-49.405
-50.531
-51.412
-52.068
-52.516
-52.776
-52.866
-52.808
-52.618
-52.318
-51.925
-51.458
-50.934
-50.371
-49.784
-49.189
-48.6
-48.03
-47.493
-46.998
-46.558
-46.18
-45.872
-45.642
-45.494
-45.435
-45.465
-45.589
-45.806
-46.117
-46.521
-47.016
-47.598
-48.263
-49.007
-49.824
-50.708
-51.652
-52.648
-53.69
-54.768
-55.874
-56.999
-58.134
-59.27
-60.398
-61.508
-62.592
-63.64
-64.644
-65.595
-66.487
-67.311
-68.062
-68.732
-69.317
-69.81
-70.207
-70.506
-70.702
-70.793
-70.777
-70.656
-70.429
-70.102
-69.677
-69.158
-68.552
-67.864
-67.1
-66.268
-65.373
-64.419
-63.412
-62.36
-61.269
-60.151
-59.015
-57.868
-56.721
-55.583
-54.462
-53.367
-52.302
-51.266
-50.265
-49.301
-48.386
-47.537
-46.769
-46.089
-45.503
-45.014
-44.618
-44.312
-44.08
-43.894
-43.729
-43.567
-43.393
-43.208
-43.006
-42.775
-42.498
-42.149
-41.703
-41.153
-40.503
-39.764
-38.967
-38.155
-37.389
-36.76
-36.364
-36.287
-36.608
-37.392
-38.696
-40.563
-43.055
-46.246
-50.156
-54.747
-59.86
-65.212
-70.492
-75.408
-79.628
-82.77
-84.537
-84.778
-83.687
-81.831
-79.927
-78.602
-78.325
-79.63
-82.953
-88.49
-96.032
-103.854
-108.904
-108.438
-99.831
-83.325
-62.511
-39.445
-16.101
10.406
49.16
105.761
184.355
281.52
382.602
472.901
535.885
557.7
532.834
457.817
334.636
171.36
-18.873
-215.001
-393.224
-530.339
-611.016
-633.32
-604.634
-543.392
-469.999
-399.329
-343.817
-304.367
-275.18
-250.381
-220.593
-183.521
-142.982
-103.106
-70.623
-48.5
-35.168
-28.547
-25.673
-24.403
-24.016
-23.877
-23.292
-21.629
-18.638
-14.462
-9.381
-3.887
1.536
6.511
10.54
13.218
14.54
14.7
13.961
12.685
11.197
9.758
8.709
8.36
8.842
10.189
12.364
15.263
18.805
22.919
27.473
32.32
37.316
42.319
47.245
52.042
56.648
61.015
65.107
68.898
72.396
75.625
78.602
81.352
83.902
86.284
88.545
90.742
92.93
95.175
97.524
100.01
102.666
105.513
108.563
111.826
115.299
118.97
122.829
126.87
131.081
135.454
139.975
144.623
149.38
154.222
159.124
164.064
169.019
173.964
178.876
183.73
188.503
193.173
197.715
202.101
206.305
210.297
214.049
217.533
220.72
223.585
226.1
228.243
229.991
231.324
232.224
232.676
232.666
232.181
231.214
229.757
227.807
225.362
222.425
218.998
215.089
210.707
205.864
200.575
194.857
188.727
182.207
175.32
168.091
160.547
152.715
144.626
136.31
127.799
119.126
110.325
101.43
92.474
83.492
74.518
65.583
56.721
47.962
39.336
30.873
22.599
14.541
6.721
-0.838
-8.116
-15.095
-21.759
-28.094
-34.088
-39.732
-45.018
-49.941
-54.497
-58.686
-62.507
-65.965
-69.064
-71.81
-74.213
-76.281
-78.028
-79.466
-80.61
-81.475
-82.078
-82.438
-82.572
-82.499
-82.24
-81.815
-81.244
-80.546
-79.743
-78.854
-77.897
-76.893
-75.86
-74.814
-73.772
-72.75
-71.763
-70.825
-69.948
-69.143
-68.423
-67.794
-67.266
-66.845
-66.536
-66.343
-66.268
-66.313
-66.476
-66.759
-67.157
-67.668
-68.288
-69.011
-69.83
-70.74
-71.731
-72.794
-73.919
-75.098
-76.319
-77.57
-78.842
-80.122
-81.401
-82.667
-83.911
-85.122
-86.289
-87.405
-88.459
-89.443
-90.35
-91.174
-91.907
-92.545
-93.084
-93.524
-93.864
-94.105
-94.248
-94.296
-94.252
-94.121
-93.908
-93.614
-93.244
-92.801
-92.293
-91.726
-91.109
-90.452
-89.763
-89.053
-88.333
-87.611
-86.897
-86.196
-85.511
-84.847
-84.211
-83.61
-83.063
-82.581
-82.173
-81.845
-81.599
-81.432
-81.341
-81.309
-81.312
-81.331
-81.345
-81.34
-81.312
-81.254
-81.158
-81.02
-80.818
-80.533
-80.165
-79.718
-79.209
-78.676
-78.151
-77.681
-77.343
-77.214
-77.373
-77.897
-78.842
-80.264
-82.191
-84.652
-87.708
-91.365
-95.566
-100.187
-104.962
-109.584
-113.81
-117.338
-119.802
-120.976
-120.7
-119.017
-116.395
-113.426
-110.637
-108.595
-107.893
-108.916
-111.961
-117.135
-122.979
-126.855
-126.623
-120.032
-107.343
-91.971
-74.538
-54.296
-27.856
12.596
69.266
140.162
220.428
299.73
370.834
426.927
459.707
461.225
421.204
334.125
200.449
29.334
-158.865
-341.574
-495.15
-600.951
-653.429
-656.061
-619.381
-558.528
-486.15
-410.851
-340.613
-280.506
-231.647
-194.376
-165.048
-138.213
-112.612
-88.408
-67.79
-54.528
-48.898
-49.323
-53.403
-57.783
-60.609
-61.164
-59.213
-55.284
-49.907
-43.463
-36.642
-30.122
-24.499
-20.405
-17.98
-16.973
-17.115
-18.043
-19.382
-20.822
-21.989
-22.476
-22.095
-20.815
-18.656
-15.731
-12.116
-7.856
-3.073
2.082
7.461
12.903
18.316
23.659
28.88
33.922
38.742
43.296
47.577
51.611
55.412
58.997
62.381
65.584
68.648
71.63
74.593
77.603
80.71
83.949
87.35
90.939
94.733
98.747
102.978
107.413
112.044
116.868
121.877
127.066
132.421
137.924
143.554
149.29
155.11
160.992
166.91
172.842
178.763
184.651
190.483
196.235
201.884
207.402
212.76
217.928
222.876
227.575
231.995
236.105
239.878
243.286
246.306
248.915
251.091
252.815
254.071
254.842
255.118
254.888
254.144
252.884
251.104
248.808
245.997
242.68
238.865
234.565
229.793
224.568
218.906
212.831
206.363
199.53
192.358
184.876
177.115
169.105
160.881
152.475
143.923
135.259
126.518
117.734
108.942
100.175
91.465
82.845
74.345
65.993
57.818
49.843
42.094
34.592
27.357
20.406
13.754
7.415
1.4
-4.282
-9.624
-14.621
-19.27
-23.57
-27.523
-31.131
-34.4
-37.336
-39.948
-42.247
-44.244
-45.952
-47.385
-48.558
-49.488
-50.191
-50.686
-50.99
-51.123
-51.102
-50.948
-50.678
-50.311
-49.866
-49.359
-48.808
-48.23
-47.639
-47.051
-46.481
-45.94
-45.442
-44.999
-44.619
-44.313
-44.089
-43.954
-43.914
-43.973
-44.136
-44.404
-44.781
-45.267
-45.861
-46.563
-47.37
-48.278
-49.283
-50.38
-51.562
-52.824
-54.158
-55.556
-57.009
-58.509
-60.048
-61.615
-63.201
-64.795
-66.388
-67.969
-69.528
-71.053
-72.535
-73.964
-75.33
-76.624
-77.838
-78.964
-79.995
-80.924
-81.744
-82.45
-83.039
-83.504
-83.843
-84.054
-84.135
-84.09
-83.919
-83.628
-83.22
-82.7
-82.076
-81.355
-80.542
-79.645
-78.666
-77.615
-76.497
-75.323
-74.102
-72.844
-71.561
-70.266
-68.968
-67.677
-66.404
-65.153
-63.927
-62.73
-61.566
-60.443
-59.38
-58.392
-57.488
-56.677
-55.963
-55.344
-54.821
-54.379
-53.995
-53.652
-53.329
-53.012
-52.702
-52.396
-52.091
-51.782
-51.44
-51.041
-50.578
-50.051
-49.471
-48.865
-48.261
-47.7
-47.26
-47.014
-47.043
-47.418
-48.191
-49.404
-51.076
-53.237
-55.952
-59.261
-63.134
-67.423
-71.83
-76.032
-79.761
-82.719
-84.558
-84.983
-83.792
-81.195
-77.91
-74.753
-72.456
-71.747
-73.248
-77.468
-85.009
-94.997
-104.564
-110.798
-110.658
-103.223
-91.823
-78.838
-64.469
-46.795
-17.457
31.395
102.411
195.596
302.428
408.652
499.915
560.256
575.398
536.57
441.267
292.762
104.717
-100.494
-298.7
-463.795
-577.271
-634.709
-640.971
-608.336
-551.418
-481.295
-405.747
-333.032
-270.392
-221.231
-186.513
-161.355
-137.941
-113.185
-86.768
-61.792
-43.469
-32.853
-28.695
-28.758
-29.691
-30.103
-29.963
-29.111
-27.916
-26.597
-24.854
-22.846
-20.913
-19.067
-17.306
-15.548
-13.529
-11.29
-9.195
-7.332
-5.657
-4.159
-2.788
-1.642
-0.842
-0.208
0.658
2.016
3.995
6.622
9.84
13.676
18.123
23.015
28.105
33.187
38.13
42.876
47.411
51.697
55.702
59.44
62.944
66.257
69.409
72.423
75.319
78.134
80.92
83.739
86.639
89.655
92.813
96.131
99.621
103.291
107.135
111.144
115.308
119.622
124.079
128.671
133.386
138.207
143.116
148.09
153.104
158.132
163.151
168.137
173.069
177.925
182.683
187.323
191.822
196.155
200.298
204.224
207.906
211.317
214.431
217.223
219.669
221.748
223.439
224.725
225.589
226.017
225.998
225.521
224.578
223.164
221.275
218.913
216.079
212.778
209.016
204.806
200.158
195.089
189.616
183.757
177.534
170.969
164.088
156.916
149.481
141.813
133.941
125.896
117.712
109.42
101.054
92.646
84.23
75.837
67.499
59.246
51.108
43.113
35.287
27.656
20.242
13.068
6.154
-0.483
-6.826
-12.862
-18.58
-23.969
-29.022
-33.734
-38.101
-42.123
-45.799
-49.132
-52.125
-54.786
-57.121
-59.14
-60.852
-62.271
-63.409
-64.28
-64.901
-65.286
-65.453
-65.418
-65.2
-64.815
-64.281
-63.617
-62.838
-61.961
-61.005
-59.983
-58.911
-57.804
-56.676
-55.539
-54.405
-53.286
-52.192
-51.132
-50.114
-49.147
-48.237
-47.389
-46.61
-45.903
-45.271
-44.717
-44.244
-43.852
-43.541
-43.311
-43.162
-43.091
-43.097
-43.177
-43.329
-43.549
-43.834
-44.18
-44.584
-45.041
-45.548
-46.101
-46.695
-47.327
-47.993
-48.688
-49.408
-50.15
-50.909
-51.68
-52.461
-53.247
-54.035
-54.818
-55.595
-56.36
-57.109
-57.838
-58.541
-59.214
-59.852
-60.451
-61.007
-61.514
-61.968
-62.365
-62.702
-62.973
-63.177
-63.308
-63.365
-63.343
-63.241
-63.058
-62.79
-62.437
-61.999
-61.475
-60.87
-60.185
-59.422
-58.585
-57.678
-56.705
-55.671
-54.581
-53.436
-52.242
-51.003
-49.727
-48.422
-47.097
-45.76
-44.419
-43.086
-41.768
-40.476
-39.214
-37.985
-36.792
-35.641
-34.542
-33.511
-32.559
-31.691
-30.913
-30.229
-29.634
-29.125
-28.685
-28.287
-27.909
-27.536
-27.16
-26.783
-26.4
-26.002
-25.575
-25.101
-24.571
-23.984
-23.336
-22.636
-21.912
-21.205
-20.595
-20.177
-20.026
-20.215
-20.801
-21.832
-23.374
-25.48
-28.176
-31.498
-35.474
-40.093
-45.335
-51.075
-57.019
-62.851
-68.239
-72.789
-76.147
-78.036
-78.233
-76.794
-74.218
-71.085
-67.936
-65.486
-64.436
-65.29
-68.689
-74.21
-79.534
-82.364
-80.605
-73.528
-63.836
-53.749
-42.188
-25.665
3.226
51.806
120.308
204.943
298.482
390.047
472.529
538.11
575.357
573.782
521.066
410.319
246.057
43.037
-171.247
-365.898
-515.059
-603.082
-632.889
-618.467
-576.692
-523.632
-465.75
-404.526
-343.177
-284.468
-232.623
-190.981
-157.181
-127.254
-99.066
-71.889
-48.274
-31.688
-22.424
-19.403
-20.543
-22.88
-24.963
-26.094
-25.503
-23.265
-19.727
-15.062
-9.797
-4.516
0.406
4.418
7.001
8.078
7.806
6.46
4.458
2.173
-0.105
-2.02
-3.229
-3.568
-2.978
-1.493
0.779
3.743
7.32
11.398
15.841
20.522
25.324
30.134
34.879
39.487
43.895
48.061
51.958
55.575
58.92
62.012
64.877
67.546
70.056
72.441
74.746
77.021
79.318
81.696
84.202
86.869
89.723
92.782
96.056
99.553
103.267
107.189
111.305
115.607
120.081
124.72
129.508
134.428
139.459
144.577
149.76
154.986
160.232
165.474
170.688
175.85
180.935
185.924
190.789
195.506
200.046
204.382
208.484
212.326
215.881
219.123
222.025
224.567
226.725
228.483
229.822
230.728
231.188
231.191
230.729
229.796
228.388
226.505
224.149
221.323
218.034
214.292
210.11
205.5
200.481
195.07
189.288
183.159
176.707
169.957
162.938
155.678
148.208
140.558
132.76
124.846
116.848
108.798
100.728
92.669
84.65
76.702
68.852
61.127
53.552
46.15
38.944
31.955
25.2
18.697
12.461
6.505
0.839
-4.527
-9.588
-14.337
-18.772
-22.892
-26.698
-30.193
-33.381
-36.268
-38.862
-41.171
-43.207
-44.981
-46.504
-47.792
-48.859
-49.718
-50.386
-50.877
-51.208
-51.393
-51.449
-51.39
-51.231
-50.987
-50.671
-50.297
-49.878
-49.426
-48.951
-48.465
-47.978
-47.498
-47.033
-46.59
-46.177
-45.798
-45.459
-45.163
-44.915
-44.715
-44.567
-44.471
-44.428
-44.437
-44.499
-44.612
-44.775
-44.986
-45.243
-45.545
-45.889
-46.274
-46.696
-47.155
-47.647
-48.172
-48.726
-49.308
-49.917
-50.55
-51.207
-51.885
-52.583
-53.301
-54.036
-54.789
-55.556
-56.338
-57.133
-57.938
-58.751
-59.572
-60.398
-61.227
-62.056
-62.884
-63.707
-64.524
-65.331
-66.126
-66.904
-67.661
-68.394
-69.099
-69.77
-70.404
-70.995
-71.539
-72.031
-72.467
-72.843
-73.153
-73.394
-73.561
-73.65
-73.659
-73.583
-73.421
-73.168
-72.826
-72.394
-71.874
-71.27
-70.584
-69.82
-68.982
-68.076
-67.107
-66.081
-65
-63.867
-62.691
-61.478
-60.238
-58.978
-57.705
-56.43
-55.163
-53.912
-52.686
-51.491
-50.326
-49.197
-48.11
-47.076
-46.11
-45.225
-44.428
-43.728
-43.128
-42.63
-42.231
-41.918
-41.665
-41.453
-41.267
-41.092
-40.923
-40.75
-40.557
-40.331
-40.052
-39.705
-39.279
-38.77
-38.19
-37.566
-36.939
-36.365
-35.917
-35.671
-35.709
-36.111
-36.95
-38.302
-40.212
-42.725
-45.905
-49.756
-54.25
-59.284
-64.604
-69.912
-74.958
-79.437
-83.003
-85.44
-86.564
-86.376
-85.309
-83.921
-82.7
-82.122
-82.724
-84.923
-89.003
-95.168
-102.004
-106.517
-106.308
-99.055
-84.797
-67.802
-50.303
-32.401
-11.993
19.976
70.428
141.287
232.718
335.156
435.006
519.029
569.153
571.061
516.169
401.298
235.527
38
-165.398
-347.198
-485.029
-567.131
-595.705
-580.178
-534.993
-475.837
-412.015
-352.841
-305.569
-270.508
-247.238
-230.065
-209.883
-183.839
-152.035
-117.867
-88.139
-65.626
-49.893
-39.599
-32.133
-26.367
-22.63
-21.214
-22.124
-24.692
-28.228
-32.171
-35.867
-38.914
-40.871
-41.056
-39.299
-35.974
-31.334
-25.856
-20.261
-14.875
-10.027
-6.256
-3.682
-2.118
-1.406
-1.114
-0.675
0.154
1.572
3.825
6.912
10.733
15.172
19.958
24.805
29.57
34.146
38.45
42.479
46.227
49.7
52.949
56.023
58.951
61.758
64.467
67.099
69.697
72.316
75.001
77.785
80.697
83.755
86.971
90.354
93.907
97.618
101.483
105.498
109.66
113.965
118.406
122.969
127.639
132.398
137.223
142.093
146.986
151.881
156.758
161.597
166.378
171.081
175.687
180.17
184.508
188.674
192.642
196.387
199.883
203.106
206.031
208.637
210.905
212.815
214.35
215.494
216.234
216.558
216.456
215.919
214.942
213.522
211.658
209.351
206.604
203.424
199.818
195.798
191.376
186.566
181.386
175.852
169.987
163.81
157.347
150.621
143.658
136.486
129.133
121.628
114.001
106.28
98.496
90.679
82.856
75.057
67.31
59.641
52.076
44.64
37.356
30.246
23.331
16.63
10.161
3.938
-2.023
-7.712
-13.116
-18.228
-23.041
-27.55
-31.751
-35.643
-39.227
-42.504
-45.478
-48.153
-50.537
-52.637
-54.462
-56.023
-57.331
-58.399
-59.239
-59.865
-60.292
-60.535
-60.607
-60.524
-60.301
-59.953
-59.494
-58.939
-58.301
-57.596
-56.835
-56.032
-55.2
-54.35
-53.493
-52.64
-51.8
-50.983
-50.197
-49.448
-48.745
-48.092
-47.495
-46.959
-46.487
-46.081
-45.745
-45.48
-45.286
-45.164
-45.113
-45.133
-45.221
-45.375
-45.595
-45.877
-46.219
-46.617
-47.07
-47.574
-48.126
-48.721
-49.356
-50.026
-50.727
-51.454
-52.201
-52.964
-53.736
-54.515
-55.293
-56.066
-56.83
-57.577
-58.304
-59.005
-59.674
-60.306
-60.895
-61.437
-61.926
-62.358
-62.73
-63.038
-63.278
-63.446
-63.542
-63.56
-63.501
-63.36
-63.137
-62.829
-62.436
-61.958
-61.396
-60.751
-60.029
-59.233
-58.37
-57.444
-56.463
-55.434
-54.362
-53.254
-52.115
-50.951
-49.767
-48.569
-47.363
-46.16
-44.97
-43.803
-42.668
-41.573
-40.523
-39.527
-38.59
-37.708
-36.882
-36.112
-35.405
-34.78
-34.25
-33.822
-33.498
-33.279
-33.157
-33.13
-33.184
-33.287
-33.412
-33.531
-33.625
-33.704
-33.781
-33.852
-33.908
-33.919
-33.864
-33.751
-33.596
-33.404
-33.189
-32.963
-32.761
-32.67
-32.775
-33.154
-33.874
-34.95
-36.392
-38.214
-40.456
-43.204
-46.473
-50.155
-54.044
-57.835
-61.221
-63.979
-65.812
-66.259
-65.045
-62.166
-57.948
-53.291
-49.163
-46.24
-45.22
-46.779
-51.211
-58.398
-67.54
-76.633
-83.337
-85.67
-81.464
-68.719
-46.031
-12.203
32.124
83.327
137.388
190.089
238.821
285.387
330.145
370.547
401.222
408.973
381.239
311.736
197.431
48.032
-116.733
-276.765
-407.592
-492.674
-532.108
-532.832
-509.679
-476.688
-435.942
-386.52
-328.069
-263.742
-203.27
-154.984
-121.135
-97.692
-78.287
-58.967
-39.826
-24.59
-15.823
-13.541
-15.918
-19.62
-22.408
-23.355
-22.19
-19.382
-15.374
-10.425
-5.068
0.111
4.575
7.708
9.328
9.63
8.837
7.268
5.272
3.142
1.24
-0.028
-0.464
-0.023
1.281
3.344
6.087
9.465
13.359
17.619
22.097
26.639
31.154
35.603
39.932
44.089
48.029
51.709
55.124
58.301
61.252
63.993
66.541
68.916
71.159
73.326
75.475
77.671
79.962
82.381
84.957
87.716
90.673
93.843
97.223
100.801
104.569
108.524
112.661
116.973
121.45
126.073
130.824
135.683
140.629
145.642
150.7
155.778
160.857
165.913
170.926
175.876
180.739
185.491
190.105
194.553
198.808
202.842
206.629
210.14
213.35
216.235
218.772
220.94
222.721
224.095
225.048
225.566
225.636
225.25
224.4
223.082
221.292
219.033
216.305
213.116
209.473
205.387
200.87
195.938
190.608
184.9
178.834
172.434
165.725
158.733
151.486
144.014
136.346
128.513
120.548
112.482
104.347
96.174
87.996
79.842
71.742
63.725
55.82
48.051
40.445
33.024
25.812
18.829
12.093
5.62
-0.575
-6.479
-12.081
-17.374
-22.35
-27.006
-31.338
-35.346
-39.03
-42.395
-45.444
-48.183
-50.622
-52.768
-54.632
-56.228
-57.566
-58.662
-59.53
-60.184
-60.641
-60.916
-61.026
-60.985
-60.811
-60.52
-60.126
-59.645
-59.093
-58.483
-57.83
-57.146
-56.444
-55.736
-55.033
-54.344
-53.679
-53.047
-52.454
-51.908
-51.415
-50.98
-50.608
-50.302
-50.065
-49.9
-49.806
-49.786
-49.839
-49.965
-50.163
-50.431
-50.768
-51.172
-51.64
-52.172
-52.763
-53.41
-54.112
-54.864
-55.664
-56.507
-57.39
-58.308
-59.258
-60.236
-61.238
-62.259
-63.296
-64.344
-65.399
-66.456
-67.511
-68.558
-69.592
-70.608
-71.601
-72.567
-73.499
-74.394
-75.244
-76.047
-76.798
-77.492
-78.124
-78.689
-79.184
-79.604
-79.945
-80.205
-80.379
-80.466
-80.462
-80.367
-80.183
-79.91
-79.55
-79.103
-78.574
-77.964
-77.278
-76.519
-75.686
-74.783
-73.814
-72.785
-71.703
-70.573
-69.403
-68.2
-66.973
-65.73
-64.478
-63.223
-61.964
-60.707
-59.458
-58.225
-57.025
-55.868
-54.764
-53.719
-52.741
-51.828
-50.978
-50.18
-49.412
-48.657
-47.906
-47.146
-46.379
-45.598
-44.79
-43.948
-43.061
-42.114
-41.105
-40.031
-38.903
-37.757
-36.642
-35.618
-34.765
-34.144
-33.821
-33.877
-34.371
-35.378
-36.971
-39.175
-42.03
-45.599
-49.869
-54.768
-60.125
-65.598
-70.829
-75.544
-79.423
-82.151
-83.529
-83.472
-82.213
-80.339
-78.554
-77.411
-77.254
-78.544
-81.686
-86.821
-93.757
-100.595
-103.795
-100.631
-89.165
-70.979
-51.484
-33.266
-16.491
5.004
43.131
103.946
188.498
288.347
386.253
468.609
523.161
541.483
519.352
450.008
330.317
163.881
-35.803
-242.501
-426.713
-562.223
-634.929
-648.651
-616.051
-555.195
-483.473
-409.5
-340.388
-281.268
-232.246
-194.292
-164.533
-136.847
-109.781
-83.429
-60.081
-44.49
-37.456
-37.246
-41.423
-46.316
-49.899
-51.585
-50.837
-47.85
-43.104
-36.993
-30.191
-23.464
-17.378
-12.447
-9.11
-7.397
-7.059
-7.799
-9.228
-10.967
-12.714
-14.128
-14.878
-14.816
-13.919
-12.219
-9.811
-6.765
-3.132
0.977
5.426
10.08
14.799
19.5
24.141
28.671
33.033
37.184
41.083
44.725
48.134
51.322
54.302
57.091
59.709
62.198
64.612
67.008
69.445
71.969
74.611
77.4
80.359
83.503
86.844
90.38
94.098
97.991
102.055
106.285
110.673
115.208
119.872
124.647
129.513
134.45
139.437
144.454
149.477
154.487
159.463
164.385
169.233
173.985
178.618
183.106
187.423
191.544
195.443
199.093
202.469
205.547
208.303
210.718
212.771
214.444
215.721
216.587
217.029
217.036
216.6
215.713
214.372
212.574
210.321
207.614
204.461
200.867
196.845
192.407
187.567
182.342
176.75
170.813
164.551
157.99
151.155
144.072
136.769
129.276
121.622
113.838
105.954
98.002
90.011
82.012
74.034
66.107
58.259
50.517
42.907
35.453
28.181
21.111
14.265
7.661
1.316
-4.755
-10.539
-16.025
-21.203
-26.066
-30.609
-34.83
-38.725
-42.296
-45.545
-48.476
-51.094
-53.406
-55.422
-57.15
-58.602
-59.79
-60.728
-61.43
-61.911
-62.185
-62.27
-62.181
-61.935
-61.548
-61.037
-60.419
-59.709
-58.924
-58.079
-57.189
-56.269
-55.331
-54.389
-53.455
-52.54
-51.654
-50.806
-50.005
-49.259
-48.574
-47.956
-47.411
-46.941
-46.551
-46.244
-46.02
-45.882
-45.828
-45.86
-45.975
-46.172
-46.449
-46.803
-47.231
-47.729
-48.293
-48.92
-49.604
-50.341
-51.126
-51.953
-52.817
-53.714
-54.638
-55.582
-56.543
-57.513
-58.489
-59.465
-60.436
-61.397
-62.342
-63.267
-64.167
-65.036
-65.869
-66.662
-67.408
-68.104
-68.744
-69.325
-69.84
-70.286
-70.66
-70.958
-71.177
-71.315
-71.368
-71.335
-71.214
-71.005
-70.707
-70.32
-69.844
-69.28
-68.631
-67.901
-67.095
-66.215
-65.268
-64.258
-63.192
-62.075
-60.914
-59.711
-58.472
-57.202
-55.91
-54.604
-53.291
-51.98
-50.679
-49.399
-48.147
-46.933
-45.76
-44.63
-43.544
-42.51
-41.533
-40.626
-39.8
-39.058
-38.406
-37.847
-37.379
-36.995
-36.681
-36.411
-36.165
-35.929
-35.689
-35.442
-35.179
-34.886
-34.556
-34.172
-33.722
-33.199
-32.6
-31.929
-31.219
-30.513
-29.871
-29.373
-29.079
-29.054
-29.374
-30.097
-31.298
-33.036
-35.324
-38.197
-41.703
-45.846
-50.58
-55.737
-60.98
-65.988
-70.499
-74.194
-76.759
-77.924
-77.514
-75.769
-73.311
-70.773
-68.663
-67.5
-67.881
-70.347
-75.425
-82.19
-87.969
-90.278
-86.708
-77.017
-64.643
-51.668
-38.304
-22.613
4.048
49.539
116.974
207.133
310.544
412.154
498.386
553.547
566.562
532.385
447.536
314.54
142.585
-52.959
-249.614
-422.677
-550.737
-622.404
-638.505
-608.316
-549.154
-477.95
-407.062
-347.449
-300.999
-264.416
-233.59
-200.557
-163.151
-124.433
-88.221
-60.717
-44.166
-36.592
-35.43
-37.149
-39.333
-41.098
-41.564
-40.063
-36.45
-30.906
-23.935
-16.253
-8.551
-1.415
4.555
8.819
11.263
12.106
11.703
10.503
8.898
7.221
5.838
5.106
5.215
6.208
8.059
10.673
13.975
17.907
22.376
27.253
32.41
37.72
43.061
48.36
53.548
58.549
63.312
67.797
71.979
75.87
79.486
82.842
85.96
88.866
91.589
94.176
96.679
99.151
101.652
104.228
106.913
109.739
112.726
115.887
119.231
122.754
126.445
130.296
134.3
138.448
142.732
147.14
151.654
156.256
160.927
165.645
170.391
175.144
179.884
184.59
189.244
193.823
198.31
202.684
206.921
210.996
214.885
218.562
222.002
225.18
228.072
230.654
232.905
234.805
236.335
237.479
238.221
238.548
238.448
237.913
236.936
235.512
233.639
231.317
228.548
225.338
221.693
217.623
213.138
208.253
202.982
197.344
191.356
185.04
178.419
171.517
164.359
156.972
149.385
141.627
133.725
125.712
117.618
109.472
101.305
93.148
85.029
76.978
69.022
61.188
53.502
45.987
38.666
31.561
24.69
18.072
11.722
5.655
-0.117
-5.583
-10.735
-15.566
-20.07
-24.246
-28.092
-31.608
-34.798
-37.664
-40.213
-42.452
-44.389
-46.035
-47.401
-48.499
-49.344
-49.949
-50.33
-50.505
-50.488
-50.299
-49.953
-49.47
-48.866
-48.159
-47.367
-46.506
-45.592
-44.644
-43.675
-42.702
-41.739
-40.8
-39.896
-39.041
-38.245
-37.518
-36.868
-36.304
-35.832
-35.459
-35.188
-35.025
-34.973
-35.033
-35.206
-35.493
-35.891
-36.4
-37.014
-37.73
-38.543
-39.447
-40.436
-41.502
-42.638
-43.836
-45.087
-46.383
-47.715
-49.071
-50.442
-51.818
-53.188
-54.543
-55.871
-57.163
-58.41
-59.602
-60.732
-61.791
-62.772
-63.667
-64.47
-65.174
-65.774
-66.265
-66.644
-66.908
-67.056
-67.086
-67.001
-66.803
-66.498
-66.088
-65.579
-64.978
-64.291
-63.525
-62.687
-61.782
-60.818
-59.802
-58.744
-57.654
-56.542
-55.421
-54.302
-53.197
-52.113
-51.062
-50.048
-49.074
-48.144
-47.264
-46.44
-45.686
-45.016
-44.436
-43.956
-43.576
-43.293
-43.099
-42.98
-42.907
-42.862
-42.826
-42.783
-42.732
-42.67
-42.595
-42.505
-42.385
-42.212
-41.983
-41.697
-41.36
-41.009
-40.683
-40.435
-40.351
-40.497
-40.932
-41.726
-42.928
-44.574
-46.686
-49.257
-52.304
-55.908
-60.098
-64.807
-69.845
-74.868
-79.538
-83.555
-86.538
-88.02
-87.643
-85.297
-81.333
-76.528
-71.647
-67.582
-65.399
-65.947
-69.994
-77.142
-85.176
-92.552
-98.286
-101.873
-104.292
-102.496
-89.969
-61.981
-15.16
47.345
116.066
184.848
251.414
315.896
379.967
437.836
474.326
472.747
418.954
308.211
149.514
-38.573
-231.272
-403.391
-533.869
-610.604
-634.102
-612.344
-560.444
-495.621
-428.407
-368.329
-321.492
-286.408
-262.608
-245.447
-225.28
-199.763
-168
-131.296
-98.732
-74.271
-58.485
-52.384
-51.247
-51.665
-52.958
-53.204
-52.277
-50.696
-48.081
-44.513
-40.28
-35.554
-30.696
-26.314
-22.958
-20.778
-19.732
-19.675
-20.291
-21.317
-22.509
-23.484
-23.877
-23.505
-22.299
-20.281
-17.555
-14.185
-10.239
-5.848
-1.168
3.649
8.473
13.23
17.889
22.403
26.722
30.801
34.613
38.164
41.477
44.573
47.468
50.185
52.757
55.236
57.678
60.144
62.693
65.369
68.205
71.231
74.467
77.929
81.626
85.555
89.704
94.066
98.634
103.399
108.35
113.471
118.741
124.139
129.641
135.223
140.859
146.525
152.195
157.845
163.451
168.987
174.43
179.753
184.93
189.93
194.724
199.281
203.574
207.573
211.249
214.577
217.532
220.091
222.234
223.943
225.2
225.992
226.307
226.135
225.469
224.305
222.642
220.48
217.823
214.678
211.054
206.963
202.419
197.439
192.04
186.243
180.071
173.547
166.698
159.551
152.136
144.482
136.622
128.587
120.41
112.124
103.762
95.357
86.942
78.547
70.204
61.943
53.792
45.778
37.928
30.266
22.814
15.593
8.623
1.918
-4.504
-10.632
-16.455
-21.963
-27.15
-32.01
-36.541
-40.74
-44.608
-48.146
-51.359
-54.253
-56.833
-59.108
-61.089
-62.786
-64.21
-65.376
-66.295
-66.983
-67.455
-67.725
-67.809
-67.724
-67.484
-67.108
-66.61
-66.005
-65.31
-64.538
-63.703
-62.821
-61.902
-60.96
-60.007
-59.053
-58.109
-57.186
-56.293
-55.437
-54.627
-53.87
-53.172
-52.539
-51.974
-51.484
-51.069
-50.734
-50.482
-50.312
-50.227
-50.227
-50.31
-50.477
-50.725
-51.051
-51.454
-51.928
-52.469
-53.074
-53.739
-54.458
-55.226
-56.037
-56.887
-57.769
-58.676
-59.602
-60.54
-61.481
-62.419
-63.346
-64.255
-65.137
-65.985
-66.79
-67.546
-68.246
-68.882
-69.447
-69.934
-70.337
-70.65
-70.868
-70.988
-71.005
-70.917
-70.723
-70.426
-70.026
-69.526
-68.927
-68.234
-67.45
-66.581
-65.632
-64.605
-63.506
-62.341
-61.118
-59.847
-58.538
-57.201
-55.845
-54.483
-53.127
-51.79
-50.48
-49.201
-47.961
-46.768
-45.636
-44.58
-43.613
-42.74
-41.967
-41.3
-40.739
-40.28
-39.908
-39.593
-39.314
-39.053
-38.803
-38.563
-38.324
-38.072
-37.797
-37.483
-37.128
-36.736
-36.301
-35.82
-35.317
-34.838
-34.447
-34.247
-34.325
-34.737
-35.548
-36.812
-38.562
-40.845
-43.703
-47.103
-50.99
-55.353
-60.164
-65.369
-70.865
-76.383
-81.534
-86.064
-89.868
-92.614
-93.877
-93.49
-91.287
-88.042
-85.731
-84.797
-84.715
-84.328
-80.074
-71.532
-61.761
-53.379
-51.868
-59.142
-70.504
-81.3
-82.62
-66.481
-31.828
22.369
91.775
169.884
254.666
341.044
424.649
498.933
549.794
563.097
525.462
430.094
281.768
95.63
-103.441
-288.589
-434.4
-524.536
-557.182
-539.224
-489.061
-427.582
-369.281
-326.46
-299.827
-282.339
-267.28
-244.724
-211.726
-172.651
-132.646
-98.972
-75.081
-59.726
-50.79
-45.691
-42.987
-42.05
-42.149
-42.468
-41.973
-40.204
-37.314
-33.369
-28.553
-23.303
-17.997
-13.221
-9.674
-7.485
-6.452
-6.404
-7.05
-8.127
-9.445
-10.613
-11.194
-10.986
-9.92
-8.013
-5.379
-2.063
1.913
6.431
11.344
16.495
21.714
26.915
32.063
37.11
42.011
46.709
51.149
55.322
59.247
62.935
66.4
69.646
72.679
75.538
78.276
80.951
83.626
86.344
89.132
92.018
95.024
98.166
101.46
104.902
108.48
112.186
116.019
119.975
124.051
128.236
132.514
136.867
141.276
145.725
150.194
154.665
159.116
163.529
167.886
172.17
176.363
180.448
184.401
188.201
191.825
195.25
198.452
201.408
204.096
206.493
208.579
210.335
211.744
212.791
213.459
213.737
213.614
213.081
212.13
210.756
208.957
206.733
204.085
201.017
197.536
193.65
189.371
184.712
179.688
174.316
168.615
162.605
156.308
149.748
142.95
135.94
128.745
121.392
113.912
106.333
98.684
90.995
83.294
75.611
67.974
60.409
52.944
45.604
38.413
31.394
24.569
17.958
11.58
5.451
-0.415
-6.003
-11.305
-16.309
-21.011
-25.403
-29.485
-33.253
-36.71
-39.857
-42.698
-45.24
-47.49
-49.456
-51.148
-52.579
-53.761
-54.707
-55.431
-55.95
-56.279
-56.434
-56.432
-56.289
-56.024
-55.653
-55.194
-54.664
-54.078
-53.454
-52.806
-52.15
-51.501
-50.869
-50.269
-49.711
-49.205
-48.759
-48.383
-48.082
-47.862
-47.728
-47.684
-47.733
-47.874
-48.109
-48.437
-48.856
-49.362
-49.953
-50.624
-51.369
-52.184
-53.061
-53.994
-54.976
-55.998
-57.052
-58.128
-59.219
-60.314
-61.404
-62.478
-63.528
-64.544
-65.518
-66.442
-67.307
-68.107
-68.835
-69.486
-70.052
-70.529
-70.912
-71.198
-71.384
-71.467
-71.446
-71.324
-71.102
-70.784
-70.373
-69.874
-69.29
-68.629
-67.895
-67.09
-66.22
-65.287
-64.3
-63.264
-62.188
-61.079
-59.944
-58.793
-57.634
-56.476
-55.325
-54.186
-53.061
-51.955
-50.873
-49.826
-48.828
-47.891
-47.021
-46.225
-45.504
-44.859
-44.286
-43.772
-43.294
-42.831
-42.362
-41.871
-41.35
-40.786
-40.17
-39.489
-38.722
-37.852
-36.881
-35.826
-34.704
-33.548
-32.385
-31.258
-30.251
-29.462
-28.988
-28.922
-29.338
-30.288
-31.835
-34.06
-36.978
-40.551
-44.666
-49.097
-53.632
-58.097
-62.277
-65.918
-68.854
-70.953
-72.208
-72.906
-73.295
-73.616
-74.166
-75.064
-76.44
-78.498
-81.241
-84.471
-86.892
-85.992
-80.057
-67.683
-50.353
-32.932
-16.535
-0.912
17.718
49.264
96.923
160.474
237.802
317.766
391.8
451.363
482.235
474.352
418.885
311.753
161.514
-15.508
-196.732
-357.958
-479.973
-551.656
-572.868
-552.267
-505.098
-448.247
-393.838
-348.061
-310.009
-274.078
-235.053
-190.928
-144.127
-100.227
-65.054
-41.427
-29.032
-25.571
-27.678
-32.794
-38.976
-44.358
-47.597
-47.926
-45.16
-39.703
-32.248
-23.544
-14.488
-6.097
0.716
5.49
8.282
9.427
9.342
8.403
6.944
5.374
4.181
3.678
3.968
5.043
6.804
9.174
12.139
15.649
19.585
23.827
28.245
32.702
37.145
41.533
45.815
49.952
53.889
57.583
61.036
64.268
67.293
70.124
72.767
75.229
77.552
79.791
82.006
84.263
86.605
89.063
91.67
94.448
97.419
100.595
103.974
107.541
111.292
115.221
119.327
123.604
128.041
132.618
137.316
142.113
146.99
151.924
156.891
161.868
166.83
171.757
176.626
181.417
186.107
190.668
195.076
199.301
203.317
207.097
210.611
213.834
216.739
219.303
221.503
223.319
224.732
225.726
226.285
226.398
226.052
225.241
223.957
222.199
219.965
217.256
214.079
210.439
206.347
201.815
196.858
191.492
185.737
179.614
173.145
166.355
159.27
151.919
144.33
136.535
128.564
120.451
112.227
103.926
95.581
87.223
78.886
70.601
62.396
54.303
46.349
38.561
30.963
23.581
16.435
9.547
2.934
-3.387
-9.403
-15.102
-20.473
-25.51
-30.207
-34.56
-38.568
-42.231
-45.552
-48.535
-51.188
-53.517
-55.534
-57.249
-58.675
-59.828
-60.721
-61.372
-61.797
-62.015
-62.042
-61.898
-61.602
-61.172
-60.628
-59.987
-59.269
-58.492
-57.672
-56.827
-55.973
-55.123
-54.293
-53.495
-52.74
-52.04
-51.404
-50.842
-50.36
-49.965
-49.661
-49.454
-49.344
-49.334
-49.422
-49.607
-49.887
-50.258
-50.716
-51.255
-51.869
-52.552
-53.296
-54.093
-54.935
-55.812
-56.715
-57.633
-58.556
-59.475
-60.378
-61.256
-62.1
-62.901
-63.65
-64.341
-64.963
-65.512
-65.98
-66.361
-66.651
-66.844
-66.936
-66.926
-66.812
-66.593
-66.273
-65.854
-65.339
-64.734
-64.046
-63.28
-62.443
-61.543
-60.583
-59.571
-58.514
-57.42
-56.298
-55.158
-54.007
-52.858
-51.721
-50.606
-49.522
-48.476
-47.47
-46.504
-45.582
-44.709
-43.894
-43.152
-42.494
-41.926
-41.455
-41.084
-40.813
-40.637
-40.542
-40.5
-40.488
-40.491
-40.504
-40.532
-40.58
-40.631
-40.663
-40.655
-40.581
-40.443
-40.27
-40.041
-39.745
-39.456
-39.24
-39.221
-39.561
-40.267
-41.31
-42.778
-44.713
-47.056
-49.831
-52.907
-56.065
-59.359
-62.746
-66.019
-69.074
-71.811
-73.998
-75.663
-76.925
-77.651
-78.056
-78.463
-79.071
-80.272
-82.408
-85.436
-89.34
-94.129
-99.203
-103.997
-106.95
-105.198
-96.61
-79.368
-54.645
-26.924
0.543
25.29
50.385
84.242
132.808
200.842
284.494
370.126
442.778
482.692
473.779
408.863
286.376
117.759
-75.729
-267.927
-431.508
-547.652
-608.99
-621.578
-598.102
-550.172
-489.166
-420.257
-348.393
-283.362
-229.679
-190.312
-164.096
-141.84
-119.121
-95.36
-72.106
-55.257
-46.968
-45.586
-48.604
-52.202
-54.078
-53.63
-50.739
-45.844
-39.431
-31.971
-24.188
-16.791
-10.447
-5.812
-3.074
-2.084
-2.601
-4.202
-6.477
-9.099
-11.654
-13.722
-15.079
-15.627
-15.35
-14.329
-12.609
-10.211
-7.223
-3.741
0.125
4.252
8.55
12.932
17.318
21.642
25.836
29.845
33.644
37.222
40.584
43.745
46.716
49.512
52.166
54.709
57.185
59.644
62.136
64.714
67.424
70.297
73.359
76.629
80.112
83.811
87.718
91.82
96.104
100.561
105.175
109.934
114.821
119.816
124.894
130.032
135.202
140.38
145.542
150.662
155.716
160.681
165.531
170.247
174.802
179.173
183.332
187.252
190.906
194.27
197.318
200.026
202.372
204.335
205.896
207.041
207.754
208.025
207.842
207.198
206.089
204.51
202.463
199.948
196.972
193.539
189.66
185.347
180.614
175.477
169.953
164.063
157.828
151.273
144.422
137.301
129.939
122.364
114.607
106.698
98.668
90.55
82.374
74.173
65.978
57.819
49.725
41.727
33.851
26.124
18.571
11.215
4.079
-2.818
-9.458
-15.824
-21.9
-27.676
-33.14
-38.283
-43.099
-47.582
-51.731
-55.544
-59.021
-62.165
-64.98
-67.473
-69.65
-71.521
-73.097
-74.389
-75.41
-76.174
-76.696
-76.992
-77.079
-76.972
-76.69
-76.251
-75.672
-74.97
-74.165
-73.273
-72.312
-71.298
-70.248
-69.177
-68.1
-67.031
-65.983
-64.968
-63.998
-63.082
-62.231
-61.453
-60.755
-60.144
-59.624
-59.201
-58.877
-58.655
-58.536
-58.519
-58.603
-58.787
-59.067
-59.44
-59.901
-60.446
-61.067
-61.758
-62.513
-63.322
-64.178
-65.072
-65.993
-66.933
-67.881
-68.828
-69.763
-70.679
-71.564
-72.41
-73.209
-73.953
-74.633
-75.244
-75.776
-76.226
-76.587
-76.854
-77.024
-77.093
-77.06
-76.924
-76.687
-76.351
-75.919
-75.393
-74.779
-74.082
-73.307
-72.46
-71.543
-70.563
-69.526
-68.443
-67.321
-66.171
-65.001
-63.824
-62.65
-61.49
-60.353
-59.244
-58.164
-57.119
-56.114
-55.156
-54.259
-53.434
-52.684
-52.018
-51.441
-50.949
-50.539
-50.196
-49.893
-49.614
-49.344
-49.072
-48.798
-48.515
-48.217
-47.899
-47.549
-47.154
-46.711
-46.212
-45.662
-45.086
-44.521
-44.021
-43.664
-43.51
-43.618
-44.049
-44.845
-46.06
-47.733
-49.879
-52.519
-55.686
-59.401
-63.633
-68.238
-72.939
-77.423
-81.378
-84.47
-86.367
-86.723
-85.347
-82.449
-78.581
-74.464
-70.792
-68.219
-67.455
-69.276
-74.34
-81.717
-88.975
-93.715
-93.187
-87.506
-79.834
-70.323
-58.425
-40.388
-6.594
46.495
118.719
207
298.554
383.112
452.464
496.341
509.204
483.759
411.748
290.569
124.44
-69.987
-265.558
-432.219
-546.675
-602.526
-609.013
-583.995
-544.266
-497.664
-444.786
-385.562
-323.656
-265.149
-216.095
-177.563
-144.665
-113.882
-83.828
-56.141
-35.94
-24.936
-21.996
-25.189
-30.722
-36.234
-40.876
-43.563
-44.039
-42.568
-39.246
-34.527
-29.205
-23.827
-18.99
-15.352
-13.028
-11.902
-11.827
-12.457
-13.451
-14.506
-15.223
-15.222
-14.355
-12.593
-9.985
-6.653
-2.671
1.858
6.778
11.908
17.065
22.146
27.111
31.937
36.596
41.039
45.217
49.116
52.757
56.159
59.334
62.295
65.05
67.646
70.143
72.607
75.108
77.696
80.398
83.245
86.261
89.465
92.871
96.481
100.282
104.271
108.445
112.804
117.346
122.059
126.925
131.926
137.044
142.257
147.546
152.89
158.264
163.648
169.021
174.363
179.655
184.872
189.99
194.983
199.823
204.483
208.933
213.147
217.097
220.754
224.096
227.098
229.738
231.996
233.853
235.291
236.296
236.853
236.953
236.584
235.741
234.42
232.618
230.339
227.584
224.361
220.678
216.549
211.987
207.007
201.628
195.87
189.756
183.31
176.557
169.525
162.244
154.743
147.053
139.208
131.239
123.179
115.061
106.917
98.778
90.677
82.643
74.706
66.895
59.237
51.758
44.483
37.435
30.635
24.103
17.855
11.906
6.27
0.956
-4.026
-8.669
-12.97
-16.925
-20.535
-23.801
-26.726
-29.316
-31.579
-33.524
-35.16
-36.502
-37.561
-38.353
-38.894
-39.2
-39.288
-39.177
-38.884
-38.429
-37.831
-37.108
-36.281
-35.367
-34.387
-33.359
-32.3
-31.227
-30.157
-29.106
-28.087
-27.115
-26.201
-25.357
-24.593
-23.918
-23.34
-22.865
-22.5
-22.248
-22.112
-22.094
-22.194
-22.413
-22.747
-23.195
-23.752
-24.414
-25.175
-26.028
-26.967
-27.985
-29.071
-30.218
-31.416
-32.655
-33.924
-35.213
-36.51
-37.805
-39.086
-40.343
-41.565
-42.741
-43.862
-44.919
-45.902
-46.803
-47.615
-48.33
-48.942
-49.444
-49.834
-50.107
-50.259
-50.289
-50.197
-49.982
-49.65
-49.204
-48.646
-47.983
-47.221
-46.367
-45.428
-44.411
-43.323
-42.169
-40.96
-39.704
-38.413
-37.098
-35.77
-34.441
-33.124
-31.829
-30.569
-29.348
-28.172
-27.043
-25.971
-24.962
-24.033
-23.197
-22.459
-21.828
-21.31
-20.902
-20.599
-20.388
-20.241
-20.14
-20.069
-20.015
-19.978
-19.949
-19.918
-19.877
-19.813
-19.71
-19.561
-19.355
-19.093
-18.804
-18.532
-18.335
-18.294
-18.463
-18.898
-19.668
-20.83
-22.446
-24.56
-27.165
-30.281
-33.982
-38.315
-43.256
-48.638
-54.108
-59.328
-64.032
-67.874
-70.454
-71.408
-70.509
-68.043
-64.728
-61.239
-58.309
-56.785
-57.471
-61.201
-67.629
-74.671
-80.196
-82.807
-83.686
-85.4
-87.014
-83.574
-65.508
-24.387
39.373
118.606
200.351
274.344
340.214
400.099
456.253
504.652
529.995
516.209
451.01
329.965
161.771
-35.572
-237.522
-417.422
-551.658
-626.317
-641.661
-607.01
-540.27
-461.147
-382.352
-314.608
-262.86
-224.746
-197.758
-175.725
-152.096
-126.404
-99.736
-75.429
-58.061
-47.868
-43.4
-42.684
-42.677
-42.055
-40.482
-37.405
-33.047
-27.853
-21.973
-15.844
-9.982
-4.692
-0.422
2.34
3.544
3.399
2.184
0.293
-1.93
-4.217
-6.232
-7.609
-8.151
-7.792
-6.544
-4.497
-1.723
1.727
5.765
10.259
15.081
20.096
25.178
30.254
35.256
40.106
44.751
49.145
53.262
57.109
60.704
64.063
67.206
70.163
72.96
75.643
78.262
80.871
83.528
86.277
89.148
92.172
95.367
98.744
102.31
106.06
109.978
114.057
118.285
122.652
127.148
131.757
136.461
141.24
146.072
150.934
155.805
160.664
165.49
170.259
174.952
179.548
184.027
188.367
192.546
196.539
200.32
203.865
207.148
210.147
212.836
215.194
217.2
218.836
220.085
220.932
221.363
221.369
220.939
220.068
218.751
216.985
214.772
212.114
209.015
205.483
201.527
197.16
192.394
187.246
181.733
175.874
169.69
163.203
156.437
149.418
142.172
134.726
127.109
119.351
111.482
103.53
95.528
87.503
79.487
71.508
63.593
55.77
48.065
40.502
33.105
25.895
18.892
12.115
5.581
-0.696
-6.702
-12.426
-17.858
-22.992
-27.82
-32.339
-36.547
-40.442
-44.026
-47.301
-50.272
-52.943
-55.324
-57.421
-59.246
-60.81
-62.124
-63.202
-64.059
-64.709
-65.167
-65.45
-65.573
-65.553
-65.407
-65.152
-64.803
-64.376
-63.889
-63.355
-62.79
-62.207
-61.62
-61.042
-60.483
-59.957
-59.472
-59.038
-58.664
-58.357
-58.125
-57.972
-57.903
-57.922
-58.03
-58.23
-58.52
-58.901
-59.372
-59.929
-60.57
-61.291
-62.088
-62.955
-63.885
-64.873
-65.911
-66.99
-68.102
-69.238
-70.389
-71.546
-72.7
-73.841
-74.962
-76.053
-77.106
-78.113
-79.064
-79.954
-80.774
-81.517
-82.178
-82.751
-83.232
-83.619
-83.911
-84.109
-84.212
-84.222
-84.14
-83.971
-83.716
-83.377
-82.955
-82.453
-81.875
-81.225
-80.51
-79.736
-78.913
-78.049
-77.154
-76.236
-75.303
-74.358
-73.404
-72.445
-71.486
-70.533
-69.601
-68.702
-67.846
-67.043
-66.3
-65.615
-64.984
-64.396
-63.828
-63.268
-62.7
-62.11
-61.496
-60.85
-60.175
-59.475
-58.74
-57.959
-57.124
-56.231
-55.297
-54.365
-53.467
-52.654
-51.992
-51.529
-51.341
-51.51
-52.097
-53.169
-54.766
-56.888
-59.574
-62.898
-66.851
-71.354
-76.198
-80.992
-85.381
-89.098
-91.821
-93.222
-93.115
-91.476
-88.649
-85.471
-82.866
-81.566
-82.163
-85.144
-90.728
-98.858
-108.944
-118.711
-124.702
-123.893
-113.622
-94.416
-70.016
-42.923
-15.272
15.513
57.17
114.624
190.697
280.625
369.796
442.397
482.624
478.17
425.139
325.403
183.962
12.995
-168.935
-341.996
-483.014
-575.194
-616.895
-614.023
-579.856
-529.878
-471.27
-409.04
-349.195
-295.571
-252.529
-221.785
-198.568
-177.116
-154.419
-129.985
-107.192
-90.249
-79.937
-75.176
-73.574
-72.141
-69.505
-65.181
-59.073
-51.698
-43.521
-34.886
-26.379
-18.554
-11.922
-7.066
-4.165
-3.033
-3.374
-4.75
-6.755
-9.068
-11.301
-13.048
-14.063
-14.232
-13.536
-12.049
-9.821
-6.88
-3.3
0.829
5.397
10.28
15.361
20.526
25.681
30.748
35.645
40.314
44.716
48.831
52.666
56.244
59.58
62.698
65.628
68.402
71.068
73.68
76.294
78.971
81.76
84.697
87.812
91.128
94.654
98.398
102.352
106.504
110.841
115.355
120.034
124.865
129.833
134.917
140.096
145.345
150.639
155.954
161.266
166.55
171.781
176.935
181.987
186.914
191.691
196.291
200.686
204.845
208.741
212.346
215.632
218.572
221.142
223.318
225.08
226.41
227.29
227.705
227.644
227.097
226.056
224.516
222.475
219.934
216.896
213.366
209.352
204.866
199.922
194.534
188.72
182.502
175.902
168.944
161.654
154.062
146.196
138.089
129.772
121.28
112.645
103.904
95.092
86.242
77.39
68.57
59.815
51.158
42.63
34.261
26.079
18.111
10.383
2.916
-4.266
-11.146
-17.705
-23.93
-29.807
-35.326
-40.478
-45.256
-49.658
-53.682
-57.326
-60.595
-63.493
-66.025
-68.202
-70.032
-71.529
-72.705
-73.576
-74.157
-74.466
-74.521
-74.341
-73.946
-73.356
-72.591
-71.673
-70.621
-69.457
-68.201
-66.872
-65.491
-64.075
-62.643
-61.211
-59.795
-58.411
-57.072
-55.792
-54.583
-53.455
-52.418
-51.48
-50.647
-49.926
-49.321
-48.833
-48.464
-48.215
-48.084
-48.069
-48.167
-48.375
-48.686
-49.096
-49.598
-50.183
-50.843
-51.57
-52.352
-53.18
-54.044
-54.932
-55.835
-56.741
-57.639
-58.521
-59.375
-60.193
-60.964
-61.679
-62.33
-62.909
-63.409
-63.824
-64.147
-64.374
-64.503
-64.534
-64.467
-64.302
-64.04
-63.684
-63.237
-62.703
-62.086
-61.386
-60.608
-59.758
-58.842
-57.868
-56.845
-55.781
-54.685
-53.571
-52.448
-51.326
-50.212
-49.111
-48.027
-46.969
-45.947
-44.975
-44.066
-43.225
-42.461
-41.78
-41.182
-40.663
-40.208
-39.79
-39.39
-38.993
-38.589
-38.173
-37.737
-37.269
-36.768
-36.222
-35.628
-34.984
-34.293
-33.558
-32.81
-32.099
-31.49
-31.073
-30.92
-31.086
-31.63
-32.605
-34.071
-36.073
-38.632
-41.738
-45.385
-49.622
-54.452
-59.779
-65.385
-70.932
-76.075
-80.545
-84.07
-86.23
-86.697
-85.44
-82.713
-79.157
-75.429
-72.025
-69.526
-68.732
-70.465
-74.159
-77.86
-79.667
-77.403
-71.814
-66.442
-60.96
-53.662
-39.82
-9.895
38.531
103.831
182.539
264.123
341.35
408.151
454.738
473.821
456.782
396.202
292.627
151.805
-13.259
-182.722
-337.266
-458.451
-533.426
-560.768
-544.915
-497.55
-434.957
-369.043
-311.306
-268.624
-239.406
-220.668
-205.225
-185.235
-159.705
-130.178
-100.836
-77.586
-61.875
-52.53
-47.898
-45.309
-43.422
-42.172
-41.108
-39.722
-37.837
-35.314
-32.124
-28.558
-24.9
-21.279
-18.067
-15.679
-14.15
-13.418
-13.375
-13.757
-14.371
-15.033
-15.428
-15.241
-14.327
-12.634
-10.193
-7.094
-3.387
0.849
5.483
10.347
15.266
20.138
24.916
29.575
34.087
38.406
42.482
46.303
49.885
53.245
56.397
59.349
62.11
64.721
67.237
69.717
72.226
74.808
77.488
80.293
83.243
86.355
89.639
93.096
96.713
100.485
104.408
108.478
112.693
117.04
121.501
126.056
130.688
135.376
140.099
144.838
149.569
154.272
158.928
163.518
168.022
172.421
176.689
180.804
184.741
188.475
191.981
195.235
198.211
200.886
203.24
205.252
206.905
208.18
209.065
209.544
209.607
209.246
208.452
207.221
205.551
203.441
200.895
197.917
194.513
190.695
186.473
181.862
176.878
171.54
165.866
159.877
153.598
147.051
140.264
133.263
126.075
118.73
111.258
103.688
96.05
88.376
80.695
73.037
65.43
57.902
50.48
43.191
36.058
29.105
22.354
15.825
9.536
3.504
-2.256
-7.732
-12.913
-17.79
-22.355
-26.605
-30.536
-34.147
-37.438
-40.411
-43.071
-45.423
-47.475
-49.234
-50.711
-51.916
-52.864
-53.566
-54.038
-54.296
-54.354
-54.231
-53.942
-53.505
-52.937
-52.256
-51.479
-50.623
-49.704
-48.74
-47.745
-46.735
-45.725
-44.728
-43.757
-42.824
-41.94
-41.115
-40.357
-39.676
-39.076
-38.565
-38.148
-37.828
-37.609
-37.492
-37.478
-37.568
-37.76
-38.053
-38.442
-38.924
-39.494
-40.147
-40.877
-41.677
-42.541
-43.46
-44.429
-45.438
-46.478
-47.542
-48.619
-49.7
-50.778
-51.841
-52.881
-53.889
-54.857
-55.777
-56.642
-57.446
-58.181
-58.842
-59.423
-59.92
-60.328
-60.644
-60.864
-60.986
-61.01
-60.938
-60.771
-60.515
-60.171
-59.744
-59.241
-58.667
-58.028
-57.328
-56.571
-55.763
-54.909
-54.017
-53.096
-52.153
-51.198
-50.242
-49.295
-48.367
-47.465
-46.594
-45.758
-44.959
-44.203
-43.495
-42.848
-42.272
-41.774
-41.363
-41.043
-40.811
-40.661
-40.578
-40.538
-40.524
-40.519
-40.505
-40.472
-40.409
-40.313
-40.186
-40.014
-39.785
-39.494
-39.134
-38.72
-38.29
-37.876
-37.527
-37.312
-37.278
-37.497
-38.046
-38.987
-40.389
-42.286
-44.674
-47.574
-51.042
-55.079
-59.625
-64.504
-69.355
-73.862
-77.777
-80.797
-82.599
-82.936
-81.685
-79.079
-75.851
-72.771
-70.428
-69.514
-70.657
-74.261
-80.655
-88.674
-95.445
-98.388
-94.983
-85.348
-72.599
-57.935
-41.631
-19.625
16.621
71.819
147.786
238.627
330.199
408.614
459.703
475.645
454.518
395.448
301.92
175.746
23.135
-140.422
-297.08
-423.741
-503.109
-533.233
-520.553
-480.874
-431.484
-381.308
-336.319
-297.997
-263.879
-233.105
-202.682
-170.15
-136.688
-104.286
-76.72
-57.044
-45.105
-39.245
-37.142
-36.921
-37.629
-38.687
-39.464
-39.18
-37.502
-34.58
-30.627
-26.037
-21.258
-16.59
-12.505
-9.479
-7.551
-6.605
-6.473
-6.868
-7.556
-8.313
-8.8
-8.705
-7.894
-6.328
-4.049
-1.148
2.33
6.304
10.646
15.202
19.807
24.367
28.842
33.21
37.446
41.506
45.348
48.96
52.362
55.568
58.593
61.446
64.132
66.69
69.172
71.634
74.141
76.734
79.441
82.286
85.291
88.472
91.84
95.396
99.126
103.025
107.09
111.316
115.702
120.234
124.896
129.669
134.533
139.469
144.456
149.473
154.496
159.505
164.479
169.398
174.243
178.992
183.621
188.107
192.423
196.543
200.444
204.097
207.479
210.566
213.334
215.763
217.834
219.528
220.83
221.725
222.201
222.246
221.852
221.013
219.724
217.984
215.794
213.158
210.08
206.569
202.636
198.293
193.556
188.44
182.964
177.149
171.015
164.586
157.886
150.942
143.781
136.43
128.92
121.279
113.537
105.726
97.874
90.012
82.168
74.371
66.649
59.029
51.537
44.198
37.034
30.068
23.32
16.808
10.55
4.561
-1.148
-6.564
-11.679
-16.485
-20.977
-25.151
-29.005
-32.539
-35.753
-38.65
-41.236
-43.516
-45.497
-47.189
-48.602
-49.746
-50.635
-51.283
-51.702
-51.907
-51.915
-51.74
-51.4
-50.909
-50.286
-49.545
-48.704
-47.779
-46.786
-45.739
-44.654
-43.545
-42.425
-41.307
-40.203
-39.123
-38.079
-37.079
-36.134
-35.251
-34.439
-33.702
-33.048
-32.482
-32.007
-31.625
-31.341
-31.153
-31.064
-31.073
-31.179
-31.38
-31.674
-32.059
-32.531
-33.086
-33.719
-34.426
-35.2
-36.036
-36.927
-37.865
-38.846
-39.861
-40.904
-41.967
-43.044
-44.128
-45.212
-46.287
-47.348
-48.385
-49.392
-50.361
-51.284
-52.156
-52.968
-53.716
-54.393
-54.996
-55.52
-55.961
-56.315
-56.58
-56.753
-56.833
-56.819
-56.71
-56.505
-56.208
-55.82
-55.346
-54.792
-54.164
-53.467
-52.71
-51.9
-51.044
-50.151
-49.225
-48.272
-47.299
-46.313
-45.323
-44.339
-43.37
-42.427
-41.519
-40.657
-39.845
-39.092
-38.4
-37.767
-37.197
-36.69
-36.252
-35.898
-35.642
-35.488
-35.441
-35.501
-35.659
-35.911
-36.238
-36.61
-37.006
-37.4
-37.774
-38.127
-38.455
-38.75
-39.004
-39.186
-39.265
-39.235
-39.097
-38.861
-38.555
-38.204
-37.851
-37.571
-37.445
-37.554
-37.972
-38.747
-39.924
-41.531
-43.599
-46.209
-49.399
-53.108
-57.179
-61.315
-65.167
-68.476
-70.964
-72.265
-72.128
-70.469
-67.521
-64.011
-60.832
-58.702
-58.152
-59.688
-63.695
-70.3
-79.005
-87.629
-92.749
-91.447
-82.102
-66.118
-46.564
-24.858
0.045
33.783
82.269
147.523
227.478
311.927
388.785
447.875
479.304
478.896
443.762
370.304
259.097
113.804
-54.67
-226.086
-377.561
-489.382
-551.701
-568.597
-552.402
-516.097
-468.788
-413.346
-351.134
-287.241
-228.272
-180.486
-146.302
-121.366
-100.569
-81.116
-62.914
-49.519
-43.172
-43.13
-47.147
-51.792
-54.719
-55.128
-52.963
-48.749
-43.026
-36.308
-29.32
-22.777
-17.318
-13.509
-11.473
-10.989
-11.767
-13.417
-15.56
-17.881
-20.006
-21.539
-22.271
-22.14
-21.15
-19.386
-16.911
-13.751
-9.992
-5.761
-1.19
3.576
8.416
13.268
18.076
22.784
27.339
31.69
35.811
39.708
43.4
46.895
50.205
53.34
56.325
59.205
62.037
64.878
67.788
70.809
73.975
77.315
80.85
84.594
88.553
92.721
97.084
101.635
106.367
111.272
116.342
121.559
126.905
132.358
137.895
143.491
149.122
154.761
160.383
165.964
171.478
176.902
182.212
187.383
192.386
197.194
201.776
206.104
210.148
213.88
217.272
220.297
222.932
225.153
226.941
228.277
229.146
229.533
229.428
228.821
227.706
226.079
223.94
221.291
218.136
214.483
210.343
205.729
200.658
195.147
189.217
182.892
176.195
169.155
161.8
154.16
146.266
138.152
129.852
121.4
112.833
104.185
95.493
86.792
78.116
69.5
60.975
52.573
44.324
36.257
28.398
20.772
13.402
6.308
-0.492
-6.98
-13.144
-18.971
-24.454
-29.585
-34.36
-38.778
-42.838
-46.543
-49.897
-52.907
-55.58
-57.927
-59.96
-61.69
-63.134
-64.306
-65.224
-65.904
-66.366
-66.628
-66.709
-66.628
-66.405
-66.057
-65.605
-65.065
-64.456
-63.794
-63.096
-62.375
-61.648
-60.926
-60.221
-59.545
-58.907
-58.315
-57.777
-57.3
-56.887
-56.544
-56.272
-56.076
-55.955
-55.91
-55.94
-56.046
-56.223
-56.472
-56.787
-57.167
-57.607
-58.103
-58.65
-59.245
-59.884
-60.561
-61.274
-62.017
-62.788
-63.581
-64.395
-65.225
-66.068
-66.922
-67.783
-68.651
-69.521
-70.393
-71.265
-72.134
-72.999
-73.859
-74.713
-75.559
-76.394
-77.218
-78.027
-78.822
-79.599
-80.355
-81.088
-81.795
-82.472
-83.118
-83.728
-84.297
-84.821
-85.295
-85.716
-86.078
-86.377
-86.607
-86.762
-86.839
-86.835
-86.744
-86.563
-86.289
-85.92
-85.455
-84.896
-84.241
-83.493
-82.652
-81.718
-80.697
-79.591
-78.404
-77.14
-75.804
-74.401
-72.942
-71.434
-69.887
-68.309
-66.708
-65.093
-63.473
-61.857
-60.251
-58.665
-57.106
-55.583
-54.11
-52.697
-51.349
-50.07
-48.866
-47.734
-46.671
-45.667
-44.704
-43.772
-42.862
-41.97
-41.099
-40.236
-39.371
-38.501
-37.627
-36.763
-35.928
-35.11
-34.291
-33.489
-32.75
-32.158
-31.804
-31.705
-31.889
-32.466
-33.613
-35.537
-38.346
-41.968
-46.287
-51.306
-57.01
-63.223
-69.537
-75.312
-80.011
-83.474
-85.718
-86.611
-85.978
-83.857
-80.66
-77.269
-74.663
-73.381
-73.636
-75.767
-80.096
-86.733
-95.479
-105.445
-115.109
-122.216
-123.876
-117.294
-100.705
-75.368
-44.098
-8.943
29.78
76.367
135.315
208.001
292.922
382.492
467.94
539.773
585.609
593.037
547.995
441.434
275.206
64.483
-160.023
-363.273
-515.658
-602.178
-628.873
-613.865
-576.923
-530.466
-476.762
-413.548
-342.141
-271.747
-212.306
-170.355
-145.157
-127.202
-109.487
-89.603
-69.021
-53.556
-45.597
-43.929
-46.055
-48.258
-48.485
-46.271
-41.81
-35.8
-28.8
-21.45
-13.687
-5.416
1.863
7.318
9.036
5.103
-1.712
-9.376
-15.071
-15.162
-12.223
-8.336
-4.992
-4.959
-6.211
-6.792
-6.309
-3.537
0.7
5.324
10.368
15.545
20.787
26.21
31.627
36.873
41.918
46.708
51.2
55.404
59.341
63.029
66.497
69.779
72.896
75.892
78.829
81.769
84.776
87.893
91.154
94.584
98.208
102.039
106.084
110.334
114.776
119.4
124.199
129.165
134.286
139.547
144.926
150.403
155.953
161.552
167.178
172.804
178.406
183.963
189.45
194.845
200.126
205.269
210.249
215.039
219.61
223.935
227.987
231.739
235.165
238.239
240.94
243.245
245.136
246.597
247.611
248.166
248.25
247.856
246.977
245.608
243.748
241.399
238.565
235.25
231.463
227.217
222.524
217.4
211.863
205.933
199.63
192.979
186.004
178.732
171.192
163.412
155.422
147.255
138.941
130.514
122.005
113.447
104.871
96.31
87.793
79.35
71.009
62.798
54.743
46.868
39.196
31.748
24.544
17.601
10.935
4.56
-1.513
-7.274
-12.715
-17.83
-22.615
-27.068
-31.189
-34.981
-38.445
-41.587
-44.414
-46.934
-49.156
-51.091
-52.752
-54.151
-55.303
-56.221
-56.922
-57.422
-57.736
-57.881
-57.875
-57.733
-57.472
-57.108
-56.657
-56.135
-55.556
-54.935
-54.284
-53.618
-52.947
-52.282
-51.635
-51.014
-50.428
-49.885
-49.392
-48.953
-48.575
-48.262
-48.016
-47.841
-47.738
-47.707
-47.751
-47.868
-48.057
-48.318
-48.648
-49.046
-49.507
-50.03
-50.61
-51.244
-51.927
-52.656
-53.426
-54.232
-55.071
-55.939
-56.832
-57.745
-58.675
-59.617
-60.569
-61.526
-62.484
-63.439
-64.389
-65.329
-66.255
-67.166
-68.057
-68.925
-69.767
-70.581
-71.362
-72.109
-72.816
-73.481
-74.1
-74.67
-75.188
-75.651
-76.056
-76.399
-76.68
-76.895
-77.043
-77.123
-77.131
-77.065
-76.926
-76.711
-76.42
-76.051
-75.606
-75.085
-74.489
-73.825
-73.094
-72.302
-71.451
-70.548
-69.598
-68.607
-67.578
-66.515
-65.421
-64.303
-63.165
-62.016
-60.863
-59.714
-58.576
-57.458
-56.369
-55.314
-54.298
-53.318
-52.376
-51.477
-50.627
-49.838
-49.123
-48.486
-47.937
-47.478
-47.108
-46.819
-46.594
-46.404
-46.225
-46.039
-45.827
-45.582
-45.294
-44.951
-44.545
-44.061
-43.483
-42.801
-42.009
-41.111
-40.141
-39.151
-38.208
-37.408
-36.827
-36.543
-36.648
-37.221
-38.335
-40.042
-42.35
-45.27
-48.864
-53.167
-58.124
-63.556
-69.13
-74.494
-79.367
-83.417
-86.216
-87.39
-86.756
-84.541
-81.381
-77.921
-74.828
-72.903
-72.96
-75.935
-81.535
-87.415
-91.031
-89.859
-83.864
-77.318
-72.512
-68.666
-60.974
-37.082
12.52
90.261
193.525
308.531
419.065
512.964
577.211
604.622
590.203
526.314
411.641
249.535
51.544
-157.004
-348.549
-498.242
-589.464
-624.359
-614.273
-573.13
-517.252
-454.233
-389.235
-329.955
-277.871
-234.743
-199.743
-165.786
-131.144
-96.843
-65.115
-41.878
-28.892
-24.211
-25.719
-29.897
-34.329
-38.304
-40.964
-41.663
-40.383
-37.34
-32.873
-27.649
-22.33
-17.353
-13.277
-10.571
-9.213
-9.011
-9.714
-10.913
-12.26
-13.482
-14.21
-14.137
-13.161
-11.261
-8.501
-5.008
-0.865
3.824
8.904
14.205
19.559
24.853
30.031
35.052
39.868
44.436
48.712
52.683
56.371
59.792
62.96
65.891
68.607
71.147
73.57
75.94
78.321
80.762
83.297
85.957
88.766
91.743
94.899
98.237
101.746
105.42
109.259
113.258
117.415
121.719
126.155
130.705
135.353
140.079
144.865
149.691
154.536
159.38
164.205
168.99
173.717
178.364
182.907
187.321
191.579
195.654
199.52
203.149
206.514
209.59
212.352
214.777
216.844
218.534
219.827
220.708
221.162
221.176
220.74
219.845
218.487
216.661
214.368
211.61
208.39
204.715
200.596
196.044
191.072
185.698
179.939
173.816
167.352
160.57
153.496
146.159
138.586
130.809
122.857
114.763
106.559
98.278
89.95
81.609
73.285
65.009
56.812
48.721
40.765
32.97
25.361
17.96
10.791
3.872
-2.778
-9.144
-15.212
-20.968
-26.403
-31.509
-36.28
-40.711
-44.8
-48.548
-51.955
-55.026
-57.765
-60.18
-62.28
-64.074
-65.573
-66.79
-67.74
-68.435
-68.893
-69.128
-69.158
-68.999
-68.668
-68.184
-67.563
-66.822
-65.978
-65.048
-64.047
-62.991
-61.895
-60.774
-59.641
-58.509
-57.391
-56.297
-55.239
-54.226
-53.266
-52.368
-51.538
-50.782
-50.105
-49.512
-49.006
-48.591
-48.268
-48.039
-47.905
-47.865
-47.919
-48.065
-48.303
-48.629
-49.04
-49.535
-50.108
-50.757
-51.478
-52.267
-53.119
-54.03
-54.996
-56.01
-57.069
-58.166
-59.296
-60.454
-61.634
-62.83
-64.038
-65.25
-66.463
-67.669
-68.862
-70.038
-71.189
-72.309
-73.391
-74.428
-75.415
-76.345
-77.212
-78.009
-78.73
-79.371
-79.925
-80.389
-80.758
-81.027
-81.192
-81.251
-81.199
-81.037
-80.761
-80.372
-79.868
-79.253
-78.529
-77.702
-76.774
-75.752
-74.641
-73.448
-72.18
-70.845
-69.446
-67.989
-66.482
-64.936
-63.361
-61.767
-60.166
-58.566
-56.979
-55.417
-53.89
-52.406
-50.965
-49.572
-48.235
-46.965
-45.783
-44.702
-43.731
-42.877
-42.143
-41.531
-41.038
-40.652
-40.344
-40.09
-39.869
-39.672
-39.497
-39.333
-39.165
-38.968
-38.71
-38.374
-37.946
-37.42
-36.802
-36.113
-35.39
-34.705
-34.147
-33.803
-33.769
-34.124
-34.94
-36.306
-38.275
-40.917
-44.332
-48.528
-53.474
-59.088
-65.097
-71.178
-77.068
-82.386
-86.707
-89.796
-91.429
-91.573
-90.741
-89.55
-88.557
-88.379
-89.568
-92.496
-97.537
-104.978
-113.396
-119.642
-120.676
-113.326
-97.063
-76.562
-55.613
-35.656
-15.38
15.823
69.291
150.519
261.667
392.194
522.472
632.786
701.925
713.97
662.874
549.564
380.642
171.69
-55.75
-278.126
-466.732
-599.688
-668.497
-674.893
-635.113
-569.97
-496.145
-426.062
-364.814
-313.392
-270.47
-233.389
-199.356
-165.211
-131.015
-98.987
-72.029
-53.637
-44.069
-41.287
-42.837
-45.609
-47.782
-48.61
-47.378
-44.09
-39.118
-32.824
-25.832
-18.842
-12.407
-7.122
-3.555
-1.826
-1.711
-2.867
-4.85
-7.245
-9.716
-11.878
-13.324
-13.834
-13.348
-11.879
-9.523
-6.364
-2.454
2.105
7.165
12.586
18.219
23.926
29.628
35.251
40.715
45.963
50.947
55.638
60.046
64.188
68.076
71.73
75.176
78.442
81.575
84.63
87.666
90.746
93.918
97.216
100.673
104.309
108.138
112.166
116.389
120.791
125.364
130.098
134.983
140.012
145.168
150.433
155.787
161.208
166.673
172.16
177.645
183.107
188.523
193.87
199.126
204.27
209.281
214.133
218.798
223.251
227.463
231.407
235.057
238.387
241.371
243.987
246.212
248.03
249.421
250.372
250.868
250.9
250.459
249.538
248.134
246.245
243.874
241.024
237.701
233.914
229.675
224.998
219.897
214.392
208.501
202.247
195.653
188.744
181.546
174.089
166.402
158.515
150.461
142.27
133.977
125.615
117.215
108.81
100.433
92.112
83.879
75.762
67.787
59.981
52.367
44.969
37.807
30.9
24.264
17.916
11.867
6.129
0.71
-4.382
-9.141
-13.566
-17.653
-21.403
-24.818
-27.902
-30.66
-33.099
-35.228
-37.058
-38.599
-39.866
-40.87
-41.629
-42.156
-42.468
-42.583
-42.516
-42.285
-41.907
-41.401
-40.782
-40.067
-39.274
-38.419
-37.516
-36.58
-35.626
-34.667
-33.716
-32.784
-31.883
-31.024
-30.217
-29.471
-28.795
-28.197
-27.682
-27.258
-26.93
-26.7
-26.573
-26.55
-26.632
-26.821
-27.116
-27.516
-28.019
-28.623
-29.325
-30.121
-31.008
-31.979
-33.029
-34.153
-35.343
-36.594
-37.898
-39.249
-40.64
-42.063
-43.509
-44.972
-46.443
-47.914
-49.374
-50.816
-52.229
-53.604
-54.931
-56.203
-57.409
-58.541
-59.59
-60.549
-61.411
-62.168
-62.815
-63.344
-63.751
-64.032
-64.184
-64.205
-64.092
-63.845
-63.465
-62.956
-62.322
-61.566
-60.695
-59.714
-58.632
-57.455
-56.192
-54.848
-53.431
-51.949
-50.412
-48.833
-47.224
-45.597
-43.962
-42.335
-40.728
-39.154
-37.622
-36.138
-34.707
-33.336
-32.04
-30.835
-29.736
-28.753
-27.895
-27.169
-26.577
-26.118
-25.779
-25.535
-25.365
-25.25
-25.181
-25.154
-25.16
-25.187
-25.215
-25.22
-25.185
-25.1
-24.95
-24.733
-24.471
-24.199
-23.986
-23.919
-24.063
-24.488
-25.257
-26.428
-28.078
-30.27
-33.037
-36.437
-40.541
-45.375
-50.935
-57.059
-63.383
-69.543
-75.181
-79.879
-83.248
-84.956
-84.788
-83.012
-80.423
-77.872
-76.127
-75.972
-78.098
-83.068
-91.379
-101.89
-111.532
-117.42
-116.598
-108.24
-95.122
-78.256
-57.031
-29.214
12.758
74.101
155.246
254.641
362.287
465.028
551.482
608.128
625.448
597.269
517.661
386.717
210.32
2.824
-210.906
-403.118
-547.648
-628.937
-648.068
-615.978
-552.202
-477.11
-403.086
-340.065
-291.789
-255.212
-227.781
-203.462
-176.492
-147.229
-117.45
-90.976
-72.352
-61.703
-57.143
-56.395
-56.45
-55.858
-54.241
-51.045
-46.336
-40.501
-33.847
-26.877
-20.166
-14.139
-9.246
-5.995
-4.489
-4.473
-5.631
-7.563
-9.908
-12.408
-14.709
-16.398
-17.242
-17.164
-16.162
-14.328
-11.728
-8.386
-4.394
0.105
4.968
10.032
15.164
20.296
25.364
30.301
35.047
39.543
43.756
47.695
51.378
54.817
58.026
61.021
63.832
66.509
69.113
71.703
74.342
77.074
79.931
82.944
86.136
89.521
93.106
96.886
100.847
104.982
109.284
113.747
118.361
123.111
127.976
132.937
137.971
143.056
148.168
153.283
158.378
163.429
168.416
173.314
178.102
182.758
187.254
191.565
195.663
199.521
203.111
206.408
209.386
212.02
214.288
216.169
217.646
218.7
219.317
219.484
219.191
218.428
217.189
215.472
213.274
210.598
207.448
203.83
199.753
195.23
190.275
184.905
179.137
172.994
166.497
159.671
152.543
145.139
137.49
129.625
121.576
113.374
105.052
96.643
88.18
79.696
71.221
62.789
54.429
46.171
38.044
30.075
22.289
14.712
7.364
0.268
-6.558
-13.098
-19.336
-25.261
-30.86
-36.126
-41.053
-45.635
-49.871
-53.761
-57.305
-60.509
-63.376
-65.914
-68.132
-70.04
-71.649
-72.973
-74.024
-74.819
-75.373
-75.703
-75.826
-75.759
-75.521
-75.13
-74.603
-73.96
-73.218
-72.395
-71.507
-70.572
-69.605
-68.623
-67.64
-66.669
-65.724
-64.817
-63.96
-63.161
-62.431
-61.778
-61.207
-60.726
-60.34
-60.052
-59.866
-59.783
-59.805
-59.931
-60.161
-60.493
-60.924
-61.449
-62.065
-62.767
-63.55
-64.406
-65.33
-66.315
-67.352
-68.436
-69.556
-70.706
-71.876
-73.056
-74.238
-75.414
-76.574
-77.709
-78.81
-79.869
-80.877
-81.827
-82.712
-83.524
-84.255
-84.9
-85.454
-85.911
-86.267
-86.519
-86.663
-86.7
-86.63
-86.455
-86.177
-85.798
-85.321
-84.752
-84.094
-83.352
-82.529
-81.628
-80.656
-79.619
-78.526
-77.386
-76.207
-75
-73.774
-72.541
-71.31
-70.088
-68.879
-67.688
-66.524
-65.397
-64.325
-63.317
-62.383
-61.528
-60.758
-60.073
-59.468
-58.925
-58.419
-57.927
-57.434
-56.934
-56.424
-55.894
-55.338
-54.741
-54.087
-53.372
-52.594
-51.75
-50.847
-49.911
-48.99
-48.166
-47.537
-47.182
-47.163
-47.528
-48.328
-49.629
-51.482
-53.924
-56.963
-60.595
-64.86
-69.768
-75.231
-81.033
-86.828
-92.238
-96.947
-100.646
-102.962
-103.622
-102.539
-99.98
-96.556
-92.829
-89.393
-86.914
-85.964
-87.202
-90.3
-93.301
-94.343
-91.748
-85.255
-77.385
-69.02
-58.261
-41.665
-12.898
32.756
94.23
168.396
249.967
330.483
403.456
460.448
489.15
480.191
425.609
323.513
182.369
15.95
-155.585
-310.972
-433.6
-511.467
-543.672
-538.165
-506.189
-463.104
-419.646
-379.698
-345.442
-312.897
-277.27
-238.194
-195.149
-151.606
-113.509
-83.297
-62.517
-50.832
-45.281
-44.034
-45.898
-49.185
-52.909
-56.124
-57.64
-57.103
-54.723
-50.705
-45.501
-39.815
-34.19
-29.199
-25.398
-22.822
-21.308
-20.698
-20.689
-20.988
-21.312
-21.292
-20.603
-19.133
-16.871
-13.873
-10.242
-6.036
-1.346
3.685
8.892
14.11
19.243
24.252
29.114
33.801
38.268
42.472
46.402
50.081
53.527
56.755
59.776
62.6
65.267
67.833
70.36
72.913
75.536
78.26
81.113
84.12
87.3
90.668
94.226
97.966
101.883
105.979
110.252
114.701
119.318
124.087
128.991
134.014
139.136
144.341
149.607
154.91
160.232
165.55
170.843
176.091
181.27
186.352
191.312
196.118
200.743
205.157
209.331
213.233
216.837
220.116
223.043
225.595
227.75
229.487
230.786
231.633
232.011
231.908
231.314
230.221
228.625
226.523
223.916
220.806
217.2
213.107
208.537
203.506
198.028
192.123
185.811
179.116
172.063
164.679
156.993
149.035
140.839
132.436
123.861
115.148
106.333
97.451
88.535
79.621
70.743
61.932
53.221
44.642
36.223
27.992
19.977
12.201
4.689
-2.539
-9.464
-16.069
-22.339
-28.261
-33.825
-39.022
-43.847
-48.295
-52.365
-56.058
-59.376
-62.323
-64.907
-67.135
-69.018
-70.568
-71.798
-72.722
-73.358
-73.721
-73.83
-73.704
-73.361
-72.821
-72.105
-71.232
-70.222
-69.095
-67.872
-66.57
-65.21
-63.81
-62.388
-60.96
-59.544
-58.155
-56.806
-55.513
-54.287
-53.139
-52.079
-51.117
-50.26
-49.515
-48.888
-48.382
-48.002
-47.749
-47.624
-47.626
-47.754
-48.004
-48.374
-48.858
-49.45
-50.144
-50.934
-51.812
-52.77
-53.799
-54.891
-56.035
-57.223
-58.443
-59.685
-60.939
-62.195
-63.44
-64.664
-65.859
-67.013
-68.117
-69.163
-70.141
-71.044
-71.862
-72.59
-73.22
-73.746
-74.164
-74.468
-74.656
-74.726
-74.679
-74.517
-74.241
-73.856
-73.366
-72.776
-72.091
-71.317
-70.457
-69.516
-68.498
-67.41
-66.26
-65.057
-63.81
-62.529
-61.225
-59.908
-58.587
-57.272
-55.968
-54.677
-53.405
-52.16
-50.951
-49.799
-48.72
-47.723
-46.817
-46.004
-45.283
-44.649
-44.086
-43.568
-43.075
-42.586
-42.087
-41.576
-41.047
-40.495
-39.913
-39.277
-38.569
-37.786
-36.938
-36.048
-35.158
-34.308
-33.553
-32.974
-32.654
-32.679
-33.133
-34.078
-35.566
-37.627
-40.31
-43.689
-47.795
-52.565
-57.815
-63.228
-68.473
-73.267
-77.281
-80.137
-81.551
-81.4
-79.925
-77.738
-75.513
-73.876
-73.439
-74.68
-77.869
-83.154
-89.942
-96.799
-102.247
-103.881
-99.176
-87.05
-65.957
-36.027
0.487
43.249
90.678
141.717
198.054
258.125
319.349
377.117
421.284
442.444
431.351
380.364
289.156
160.058
1.938
-167.293
-328.441
-458.995
-541.376
-573.505
-561.891
-520.627
-466.436
-407.479
-347.805
-291.296
-239.974
-197.009
-164.709
-140.289
-119.319
-99.241
-79.087
-61.004
-48.439
-42.025
-40.736
-42.401
-44.14
-44.579
-43.246
-40.039
-35.458
-29.891
-23.635
-17.302
-11.456
-6.561
-3.108
-1.145
-0.414
-0.694
-1.678
-3.055
-4.582
-5.911
-6.667
-6.689
-5.933
-4.415
-2.232
0.572
3.973
7.861
12.1
16.544
21.033
25.491
29.884
34.171
38.312
42.256
45.954
49.402
52.621
55.624
58.429
61.043
63.476
65.774
67.995
70.202
72.462
74.823
77.313
79.965
82.801
85.842
89.101
92.578
96.261
100.145
104.227
108.504
112.974
117.624
122.436
127.391
132.469
137.65
142.913
148.234
153.589
158.957
164.316
169.642
174.916
180.111
185.201
190.157
194.951
199.553
203.932
208.059
211.905
215.44
218.638
221.474
223.926
225.971
227.59
228.765
229.481
229.724
229.483
228.75
227.519
225.786
223.552
220.818
217.589
213.874
209.681
205.025
199.92
194.385
188.439
182.104
175.405
168.368
161.022
153.397
145.523
137.434
129.165
120.748
112.22
103.617
94.972
86.32
77.697
69.134
60.665
52.322
44.132
36.127
28.331
20.77
13.468
6.446
-0.277
-6.684
-12.759
-18.49
-23.867
-28.88
-33.523
-37.794
-41.69
-45.211
-48.362
-51.146
-53.57
-55.644
-57.378
-58.785
-59.879
-60.675
-61.189
-61.441
-61.447
-61.229
-60.804
-60.195
-59.423
-58.506
-57.468
-56.327
-55.105
-53.822
-52.495
-51.145
-49.788
-48.442
-47.123
-45.846
-44.624
-43.472
-42.4
-41.419
-40.538
-39.765
-39.106
-38.566
-38.148
-37.854
-37.686
-37.642
-37.721
-37.92
-38.236
-38.663
-39.195
-39.826
-40.548
-41.351
-42.227
-43.166
-44.156
-45.188
-46.249
-47.328
-48.414
-49.496
-50.561
-51.6
-52.601
-53.554
-54.448
-55.275
-56.024
-56.69
-57.264
-57.739
-58.111
-58.375
-58.529
-58.573
-58.509
-58.335
-58.054
-57.67
-57.187
-56.609
-55.94
-55.184
-54.344
-53.428
-52.444
-51.401
-50.309
-49.178
-48.017
-46.84
-45.658
-44.48
-43.314
-42.161
-41.029
-39.924
-38.856
-37.842
-36.895
-36.022
-35.234
-34.535
-33.926
-33.401
-32.949
-32.545
-32.171
-31.815
-31.467
-31.126
-30.792
-30.458
-30.118
-29.762
-29.375
-28.95
-28.483
-27.979
-27.469
-26.992
-26.607
-26.392
-26.408
-26.719
-27.39
-28.47
-30.013
-32.058
-34.608
-37.686
-41.341
-45.584
-50.373
-55.543
-60.76
-65.69
-70.051
-73.504
-75.719
-76.43
-75.454
-73.037
-69.899
-66.804
-64.419
-63.445
-64.474
-67.942
-74.375
-82.883
-90.769
-95.53
-94.488
-86.672
-74.789
-60.439
-43.686
-23.514
6.638
53.047
118.297
203.94
303.432
403.629
489.726
544.152
552.493
508.256
412.197
270.073
94.269
-98.328
-289.844
-456.381
-576.167
-637.323
-636.394
-585.542
-507.225
-422.649
-350.137
-297.998
-262.814
-237.292
-212.377
-181.826
-146.926
-112.115
-82.686
-63.123
-53.233
-50.435
-52.004
-54.696
-56.683
-57.24
-55.555
-51.573
-45.757
-38.532
-30.491
-22.393
-14.837
-8.419
-3.81
-1.199
-0.382
-1.045
-2.723
-4.988
-7.528
-9.964
-11.885
-13.058
-13.382
-12.847
-11.538
-9.509
-6.79
-3.452
0.417
4.715
9.332
14.163
19.107
24.081
29.012
33.828
38.473
42.912
47.124
51.116
54.907
58.51
61.944
65.237
68.416
71.523
74.608
77.717
80.908
84.221
87.686
91.332
95.175
99.223
103.479
107.935
112.575
117.387
122.359
127.478
132.73
138.099
143.561
149.094
154.675
160.277
165.875
171.443
176.958
182.392
187.723
192.924
197.974
202.847
207.517
211.957
216.138
220.033
223.616
226.861
229.743
232.238
234.325
235.985
237.2
237.956
238.24
238.042
237.352
236.166
234.48
232.293
229.608
226.429
222.762
218.619
214.01
208.95
203.458
197.551
191.251
184.581
177.567
170.236
162.615
154.734
146.625
138.319
129.848
121.248
112.55
103.79
95
86.215
77.466
68.787
60.207
51.757
43.463
35.354
27.454
19.786
12.372
5.23
-1.62
-8.164
-14.388
-20.282
-25.835
-31.042
-35.897
-40.398
-44.544
-48.336
-51.778
-54.874
-57.632
-60.059
-62.166
-63.964
-65.466
-66.684
-67.636
-68.336
-68.802
-69.05
-69.1
-68.968
-68.674
-68.235
-67.671
-66.998
-66.236
-65.402
-64.512
-63.583
-62.631
-61.671
-60.716
-59.78
-58.875
-58.012
-57.202
-56.452
-55.771
-55.167
-54.646
-54.212
-53.871
-53.624
-53.475
-53.425
-53.473
-53.62
-53.863
-54.198
-54.624
-55.136
-55.729
-56.398
-57.137
-57.939
-58.798
-59.706
-60.656
-61.639
-62.646
-63.67
-64.702
-65.733
-66.753
-67.755
-68.73
-69.67
-70.568
-71.416
-72.208
-72.935
-73.593
-74.175
-74.676
-75.092
-75.417
-75.649
-75.786
-75.826
-75.771
-75.623
-75.383
-75.053
-74.639
-74.144
-73.573
-72.93
-72.218
-71.441
-70.604
-69.714
-68.78
-67.809
-66.809
-65.789
-64.76
-63.73
-62.709
-61.701
-60.71
-59.738
-58.792
-57.882
-57.021
-56.221
-55.487
-54.828
-54.249
-53.748
-53.323
-52.96
-52.633
-52.325
-52.021
-51.708
-51.384
-51.038
-50.658
-50.236
-49.758
-49.214
-48.599
-47.912
-47.158
-46.373
-45.604
-44.914
-44.389
-44.091
-44.085
-44.448
-45.244
-46.553
-48.436
-50.91
-54.008
-57.779
-62.231
-67.329
-72.91
-78.638
-84.175
-89.234
-93.471
-96.555
-98.185
-98.146
-96.629
-94.224
-91.57
-89.228
-87.795
-87.912
-90.139
-95.023
-101.675
-107.547
-110.354
-107.829
-99.643
-88.633
-75.898
-60.704
-40.669
-8.297
42.034
111.239
198.445
295.05
388.894
469.268
522.834
538.998
511.303
434.491
309.827
145.403
-44.584
-237.803
-409.404
-538.753
-614.674
-639.733
-627.058
-591.797
-544.385
-489.187
-426.07
-356.977
-289.634
-231.266
-186.955
-156.714
-133.687
-113.306
-94.121
-76.728
-64.898
-59.629
-59.161
-61.338
-63.181
-62.976
-60.407
-55.555
-49.009
-41.467
-33.529
-25.864
-19.081
-13.704
-10.16
-8.489
-8.434
-9.61
-11.57
-13.912
-16.282
-18.32
-19.677
-20.164
-19.732
-18.399
-16.251
-13.359
-9.781
-5.606
-0.967
4.005
9.172
14.4
19.61
24.73
29.684
34.419
38.895
43.085
47
50.66
54.078
57.278
60.287
63.134
65.868
68.545
71.222
73.965
76.824
79.832
83.024
86.419
90.032
93.869
97.927
102.19
106.651
111.3
116.126
121.121
126.269
131.548
136.94
142.418
147.957
153.534
159.122
164.697
170.233
175.706
181.089
186.362
191.497
196.467
201.244
205.797
210.099
214.12
217.834
221.211
224.226
226.856
229.077
230.872
232.221
233.109
233.521
233.446
232.875
231.802
230.221
228.133
225.539
222.443
218.852
214.777
210.23
205.227
199.786
193.926
187.67
181.042
174.068
166.776
159.196
151.357
143.293
135.036
126.619
118.077
109.443
100.752
92.039
83.336
74.676
66.091
57.611
49.268
41.088
33.099
25.326
17.792
10.519
3.526
-3.169
-9.552
-15.609
-21.329
-26.706
-31.731
-36.402
-40.717
-44.677
-48.283
-51.54
-54.454
-57.034
-59.289
-61.229
-62.868
-64.219
-65.295
-66.113
-66.689
-67.039
-67.182
-67.133
-66.913
-66.538
-66.027
-65.399
-64.671
-63.86
-62.983
-62.058
-61.1
-60.124
-59.145
-58.175
-57.227
-56.314
-55.444
-54.628
-53.874
-53.189
-52.578
-52.047
-51.6
-51.238
-50.965
-50.782
-50.688
-50.684
-50.768
-50.938
-51.193
-51.529
-51.942
-52.428
-52.982
-53.599
-54.274
-54.999
-55.768
-56.576
-57.414
-58.277
-59.155
-60.044
-60.934
-61.817
-62.687
-63.536
-64.355
-65.138
-65.877
-66.566
-67.198
-67.769
-68.271
-68.701
-69.053
-69.325
-69.511
-69.609
-69.616
-69.529
-69.348
-69.071
-68.697
-68.227
-67.663
-67.009
-66.269
-65.447
-64.549
-63.58
-62.548
-61.458
-60.316
-59.127
-57.897
-56.633
-55.341
-54.032
-52.715
-51.399
-50.094
-48.81
-47.554
-46.336
-45.159
-44.024
-42.933
-41.891
-40.904
-39.987
-39.154
-38.413
-37.769
-37.229
-36.787
-36.436
-36.163
-35.938
-35.738
-35.548
-35.351
-35.146
-34.93
-34.69
-34.416
-34.09
-33.686
-33.195
-32.615
-31.947
-31.226
-30.505
-29.849
-29.354
-29.103
-29.153
-29.587
-30.469
-31.851
-33.792
-36.309
-39.422
-43.221
-47.737
-52.892
-58.491
-64.149
-69.444
-74.049
-77.578
-79.577
-79.753
-78.029
-74.777
-70.87
-67.156
-64.476
-63.727
-65.613
-70.789
-78.843
-87.517
-94.345
-96.935
-94.242
-88.084
-78.979
-64.815
-42.167
-4.963
51.031
123.83
209.417
301.747
392.104
474.457
540.322
576.573
571.327
512.593
395.13
225.243
18.88
-197.427
-395.116
-548.353
-640.196
-670.33
-647.505
-588.699
-514.146
-436.018
-364.616
-306.368
-260.172
-225.393
-197.445
-169.233
-139.634
-109.472
-82.041
-62.825
-52.674
-49.602
-50.926
-52.86
-53.425
-52.182
-48.627
-42.928
-35.623
-27.174
-18.3
-9.795
-2.196
4.023
8.371
10.78
11.495
10.833
9.27
7.235
5.032
3.039
1.637
1.026
1.297
2.457
4.426
7.153
10.603
14.676
19.261
24.234
29.462
34.844
40.285
45.694
50.997
56.115
60.99
65.593
69.912
73.945
77.709
81.216
84.485
87.558
90.473
93.277
96.027
98.774
101.576
104.48
107.52
110.725
114.114
117.695
121.472
125.443
129.596
133.921
138.411
143.053
147.834
152.741
157.754
162.853
168.016
173.218
178.436
183.651
188.838
193.975
199.04
204.011
208.865
213.581
218.132
222.491
226.631
230.525
234.146
237.467
240.463
243.109
245.382
247.262
248.73
249.772
250.371
250.516
250.196
249.405
248.137
246.39
244.164
241.461
238.287
234.648
230.556
226.023
221.063
215.695
209.935
203.805
197.328
190.528
183.431
176.064
168.457
160.639
152.643
144.5
136.243
127.906
119.52
111.12
102.737
94.402
86.147
78.001
69.991
62.145
54.487
47.041
39.828
32.867
26.177
19.772
13.666
7.871
2.396
-2.753
-7.57
-12.052
-16.198
-20.008
-23.485
-26.633
-29.459
-31.969
-34.175
-36.086
-37.715
-39.077
-40.185
-41.057
-41.71
-42.16
-42.426
-42.527
-42.481
-42.308
-42.025
-41.651
-41.205
-40.704
-40.164
-39.602
-39.034
-38.474
-37.935
-37.431
-36.972
-36.569
-36.233
-35.97
-35.789
-35.696
-35.697
-35.795
-35.993
-36.295
-36.701
-37.21
-37.823
-38.536
-39.348
-40.253
-41.246
-42.322
-43.475
-44.696
-45.979
-47.316
-48.697
-50.115
-51.561
-53.026
-54.5
-55.973
-57.437
-58.883
-60.3
-61.681
-63.016
-64.296
-65.515
-66.664
-67.738
-68.73
-69.633
-70.443
-71.154
-71.762
-72.265
-72.659
-72.941
-73.111
-73.168
-73.115
-72.955
-72.693
-72.331
-71.876
-71.334
-70.712
-70.015
-69.249
-68.418
-67.528
-66.587
-65.601
-64.58
-63.533
-62.469
-61.399
-60.334
-59.284
-58.256
-57.257
-56.288
-55.354
-54.459
-53.612
-52.824
-52.106
-51.466
-50.911
-50.446
-50.065
-49.763
-49.525
-49.325
-49.147
-48.97
-48.78
-48.567
-48.322
-48.043
-47.732
-47.374
-46.959
-46.481
-45.94
-45.353
-44.761
-44.199
-43.72
-43.4
-43.296
-43.491
-44.068
-45.089
-46.628
-48.716
-51.344
-54.534
-58.327
-62.706
-67.613
-72.859
-78.088
-83.017
-87.426
-91.031
-93.553
-94.736
-94.394
-92.726
-90.384
-87.992
-85.996
-84.923
-85.273
-87.446
-91.995
-97.938
-102.342
-102.843
-97.319
-85.977
-73.098
-60.733
-48.437
-33.617
-7.466
36.79
100.989
185.012
279.943
371.91
446.972
489.186
486.358
433.648
332.348
188.772
16.514
-165.522
-338.167
-479.258
-572.198
-614.54
-610.336
-572.029
-517.402
-455.987
-395.909
-344.916
-302.513
-269.225
-243.077
-216.173
-186.735
-155.529
-124.453
-99.636
-83.161
-73.46
-69.001
-66.824
-65.015
-63.377
-61.388
-58.47
-54.569
-49.801
-44.354
-38.703
-33.284
-28.322
-24.253
-21.549
-20.258
-20.232
-21.215
-22.816
-24.73
-26.707
-28.403
-29.477
-29.746
-29.136
-27.664
-25.417
-22.458
-18.851
-14.695
-10.124
-5.278
-0.272
4.782
9.815
14.765
19.561
24.15
28.497
32.589
36.428
40.033
43.418
46.601
49.617
52.501
55.298
58.06
60.837
63.684
66.645
69.752
73.031
76.498
80.164
84.031
88.096
92.347
96.773
101.365
106.11
110.999
116.015
121.141
126.356
131.637
136.959
142.3
147.639
152.952
158.217
163.412
168.513
173.501
178.352
183.041
187.544
191.831
195.878
199.658
203.145
206.316
209.145
211.612
213.695
215.379
216.646
217.483
217.876
217.815
217.292
216.3
214.837
212.9
210.491
207.612
204.269
200.471
196.228
191.554
186.463
180.973
175.101
168.87
162.303
155.422
148.255
140.828
133.171
125.312
117.283
109.115
100.84
92.489
84.095
75.688
67.301
58.962
50.701
42.547
34.526
26.666
18.989
11.521
4.281
-2.71
-9.433
-15.873
-22.015
-27.847
-33.358
-38.541
-43.388
-47.896
-52.062
-55.885
-59.367
-62.51
-65.32
-67.803
-69.967
-71.822
-73.378
-74.647
-75.644
-76.383
-76.879
-77.148
-77.206
-77.072
-76.761
-76.292
-75.682
-74.95
-74.111
-73.185
-72.187
-71.134
-70.043
-68.929
-67.805
-66.687
-65.586
-64.514
-63.483
-62.501
-61.578
-60.722
-59.94
-59.237
-58.619
-58.09
-57.652
-57.308
-57.06
-56.906
-56.845
-56.876
-56.996
-57.201
-57.487
-57.85
-58.282
-58.78
-59.337
-59.945
-60.597
-61.286
-62.004
-62.741
-63.49
-64.241
-64.987
-65.719
-66.429
-67.109
-67.754
-68.356
-68.908
-69.406
-69.842
-70.212
-70.512
-70.736
-70.881
-70.943
-70.921
-70.814
-70.623
-70.35
-69.996
-69.566
-69.062
-68.49
-67.854
-67.158
-66.405
-65.598
-64.741
-63.84
-62.9
-61.931
-60.94
-59.934
-58.923
-57.915
-56.917
-55.934
-54.971
-54.026
-53.103
-52.205
-51.339
-50.521
-49.763
-49.072
-48.454
-47.908
-47.43
-47.016
-46.649
-46.302
-45.955
-45.585
-45.178
-44.735
-44.252
-43.727
-43.152
-42.505
-41.764
-40.932
-40.017
-39.037
-38.025
-37.015
-36.059
-35.246
-34.663
-34.4
-34.528
-35.1
-36.162
-37.737
-39.861
-42.589
-45.928
-49.816
-54.111
-58.559
-62.875
-66.831
-70.155
-72.512
-73.647
-73.407
-71.898
-69.595
-67.119
-64.967
-63.508
-63.207
-64.462
-67.559
-72.533
-77.743
-80.21
-77.847
-68.906
-54.462
-38.851
-22.793
-5.471
16.887
53.118
105.586
172.503
249.19
323.744
387.425
433.171
452.986
441.154
390.772
297.239
159.559
-13.745
-202.513
-382.521
-523.621
-604.972
-624.272
-589.244
-521.839
-444.772
-370.461
-306.747
-253.923
-211.053
-178.444
-155.312
-140.46
-128.026
-114.004
-96.609
-75.037
-55.042
-40.013
-30.663
-28.082
-28.409
-28.868
-28.907
-27.11
-24.32
-21.504
-18.471
-15.525
-12.76
-10.092
-7.846
-6.349
-5.605
-5.527
-5.991
-6.758
-7.595
-8.3
-8.609
-8.248
-7.095
-5.132
-2.387
1.045
5.065
9.575
14.42
19.416
24.417
29.323
34.086
38.687
43.077
47.196
51.043
54.634
57.998
61.173
64.155
66.921
69.526
72.062
74.484
76.731
78.94
81.148
83.365
85.885
88.018
89.087
90.092
91.332
94.615
102.114
111.42
120.928
128.243
130.076
129.313
128.395
128.989
133.861
140.999
148.366
155.493
161.131
165.974
170.918
175.77
180.624
185.394
189.869
194.143
198.285
202.237
205.964
209.45
212.667
215.583
218.174
220.398
222.218
223.622
224.605
225.149
225.242
224.874
224.038
222.729
220.95
218.698
215.976
212.789
209.146
205.056
200.534
195.596
190.258
184.541
178.467
172.059
165.343
158.348
151.101
143.632
135.974
128.157
120.216
112.183
104.09
95.971
87.858
79.781
71.772
63.859
56.072
48.437
40.979
33.722
26.689
19.901
13.375
7.128
1.176
-4.47
-9.798
-14.801
-19.473
-23.809
-27.807
-31.468
-34.793
-37.787
-40.455
-42.804
-44.844
-46.586
-48.041
-49.223
-50.146
-50.826
-51.28
-51.524
-51.576
-51.453
-51.175
-50.758
-50.221
-49.583
-48.86
-48.07
-47.231
-46.359
-45.469
-44.578
-43.699
-42.847
-42.033
-41.27
-40.568
-39.935
-39.381
-38.913
-38.536
-38.256
-38.077
-38.001
-38.03
-38.165
-38.406
-38.752
-39.199
-39.746
-40.387
-41.117
-41.932
-42.825
-43.789
-44.817
-45.901
-47.034
-48.207
-49.41
-50.636
-51.873
-53.113
-54.344
-55.559
-56.746
-57.896
-59
-60.05
-61.036
-61.953
-62.792
-63.548
-64.213
-64.782
-65.251
-65.615
-65.872
-66.017
-66.051
-65.971
-65.781
-65.483
-65.08
-64.577
-63.98
-63.293
-62.523
-61.678
-60.762
-59.78
-58.737
-57.643
-56.504
-55.331
-54.135
-52.924
-51.708
-50.498
-49.303
-48.13
-46.985
-45.869
-44.784
-43.737
-42.737
-41.802
-40.946
-40.177
-39.503
-38.927
-38.449
-38.065
-37.765
-37.521
-37.313
-37.126
-36.947
-36.779
-36.618
-36.452
-36.267
-36.038
-35.741
-35.365
-34.914
-34.392
-33.825
-33.25
-32.719
-32.312
-32.112
-32.193
-32.624
-33.466
-34.771
-36.582
-38.96
-41.979
-45.67
-50.002
-54.825
-59.861
-64.79
-69.31
-73.089
-75.75
-76.998
-76.704
-75.101
-72.814
-70.659
-69.379
-69.532
-71.731
-76.491
-84.016
-94.029
-104.668
-112.626
-114.869
-108.614
-94.017
-74.567
-52.286
-28.955
-1.323
39.735
99.684
182.241
283.123
387.143
479.337
543.177
564.912
538.76
460.868
332.882
163.594
-32.112
-231.066
-407.729
-539.799
-614.508
-633.717
-607.952
-553.401
-486.478
-416.322
-350.312
-293.351
-245.46
-207.38
-176.306
-146.8
-117.906
-90.007
-65.546
-49.047
-41.13
-40.022
-43.35
-47.62
-50.887
-52.551
-51.972
-49.218
-44.723
-38.87
-32.304
-25.768
-19.797
-14.874
-11.474
-9.661
-9.197
-9.797
-11.071
-12.637
-14.207
-15.45
-16.019
-15.754
-14.626
-12.656
-9.945
-6.568
-2.576
1.917
6.767
11.833
16.97
22.086
27.14
32.077
36.842
41.389
45.678
49.703
53.486
57.041
60.378
63.515
66.473
69.292
72.027
74.736
77.479
80.301
83.233
86.303
89.535
92.943
96.537
100.315
104.263
108.372
112.639
117.054
121.612
126.297
131.093
135.978
140.934
145.938
150.97
156.007
161.028
166.011
170.934
175.778
180.521
185.141
189.615
193.916
198.018
201.896
205.523
208.874
211.924
214.648
217.025
219.035
220.658
221.878
222.68
223.051
222.981
222.459
221.481
220.042
218.141
215.779
212.959
209.687
205.971
201.823
197.255
192.282
186.922
181.195
175.121
168.725
162.03
155.063
147.852
140.425
132.813
125.046
117.156
109.172
101.129
93.056
84.985
76.946
68.968
61.081
53.311
45.684
38.226
30.958
23.903
17.08
10.508
4.201
-1.825
-7.559
-12.991
-18.112
-22.917
-27.401
-31.563
-35.402
-38.92
-42.122
-45.012
-47.598
-49.888
-51.892
-53.62
-55.086
-56.301
-57.281
-58.04
-58.593
-58.956
-59.145
-59.178
-59.07
-58.837
-58.496
-58.062
-57.551
-56.977
-56.356
-55.701
-55.026
-54.343
-53.664
-53
-52.362
-51.758
-51.196
-50.683
-50.226
-49.829
-49.497
-49.231
-49.035
-48.91
-48.857
-48.875
-48.964
-49.123
-49.35
-49.641
-49.995
-50.407
-50.873
-51.388
-51.948
-52.548
-53.183
-53.848
-54.536
-55.243
-55.963
-56.689
-57.416
-58.137
-58.845
-59.534
-60.197
-60.83
-61.425
-61.976
-62.48
-62.931
-63.326
-63.661
-63.933
-64.137
-64.273
-64.337
-64.328
-64.244
-64.085
-63.85
-63.539
-63.156
-62.702
-62.184
-61.602
-60.963
-60.271
-59.531
-58.75
-57.931
-57.077
-56.19
-55.278
-54.346
-53.404
-52.457
-51.514
-50.582
-49.67
-48.785
-47.933
-47.116
-46.331
-45.58
-44.867
-44.197
-43.585
-43.039
-42.567
-42.173
-41.862
-41.632
-41.477
-41.384
-41.327
-41.286
-41.248
-41.201
-41.142
-41.065
-40.959
-40.813
-40.609
-40.332
-39.965
-39.506
-38.962
-38.358
-37.735
-37.143
-36.653
-36.333
-36.259
-36.504
-37.139
-38.238
-39.842
-42.008
-44.811
-48.275
-52.389
-57.051
-61.98
-66.842
-71.341
-75.118
-77.79
-79.127
-78.958
-77.369
-74.962
-72.505
-70.713
-70.305
-72.006
-76.275
-83.384
-93.374
-104.389
-113.193
-117.294
-113.862
-102.822
-87.611
-68.123
-43.46
-10.551
38.624
105.243
186.854
279.599
373.097
460.446
534.16
581.859
591.416
547.953
442.587
277.81
68.073
-156.851
-364.828
-527.688
-626.555
-663.437
-650.273
-602.329
-537.608
-464.642
-388.623
-318.131
-258.244
-213.238
-184.389
-164.47
-145.506
-123.703
-98.436
-74.283
-56.904
-47.369
-44.437
-45.325
-46.472
-46.551
-45.33
-42.466
-38.268
-33.084
-27.048
-20.708
-14.655
-9.212
-4.831
-1.903
-0.413
-0.201
-1.01
-2.447
-4.182
-5.925
-7.327
-8.071
-8.001
-7.064
-5.289
-2.759
0.462
4.3
8.653
13.387
18.366
23.48
28.626
33.734
38.745
43.584
48.195
52.546
56.62
60.421
63.966
67.267
70.341
73.226
75.956
78.576
81.139
83.691
86.287
88.97
91.77
94.714
97.819
101.096
104.548
108.172
111.959
115.899
119.984
124.204
128.548
133.002
137.55
142.173
146.849
151.556
156.274
160.983
165.663
170.292
174.851
179.318
183.673
187.896
191.963
195.85
199.529
202.977
206.168
209.078
211.684
213.963
215.894
217.458
218.638
219.42
219.788
219.732
219.241
218.307
216.925
215.092
212.807
210.071
206.888
203.265
199.209
194.733
189.848
184.569
178.914
172.901
166.551
159.886
152.93
145.71
138.252
130.585
122.738
114.741
106.624
98.42
90.158
81.87
73.585
65.335
57.147
49.05
41.071
33.237
25.571
18.097
10.836
3.808
-2.969
-9.478
-15.704
-21.636
-27.262
-32.573
-37.563
-42.226
-46.56
-50.562
-54.235
-57.579
-60.6
-63.304
-65.697
-67.79
-69.592
-71.115
-72.373
-73.377
-74.144
-74.688
-75.026
-75.174
-75.149
-74.967
-74.645
-74.2
-73.649
-73.008
-72.294
-71.521
-70.705
-69.861
-69.003
-68.143
-67.295
-66.471
-65.68
-64.934
-64.241
-63.608
-63.044
-62.553
-62.142
-61.814
-61.572
-61.419
-61.356
-61.383
-61.5
-61.706
-61.999
-62.374
-62.83
-63.361
-63.962
-64.63
-65.357
-66.139
-66.968
-67.839
-68.743
-69.674
-70.623
-71.583
-72.545
-73.501
-74.442
-75.36
-76.247
-77.093
-77.892
-78.636
-79.318
-79.932
-80.47
-80.927
-81.298
-81.577
-81.762
-81.849
-81.834
-81.716
-81.494
-81.172
-80.752
-80.234
-79.623
-78.922
-78.137
-77.272
-76.333
-75.322
-74.243
-73.103
-71.907
-70.665
-69.384
-68.072
-66.738
-65.394
-64.048
-62.71
-61.387
-60.079
-58.792
-57.531
-56.304
-55.125
-54.005
-52.952
-51.974
-51.078
-50.265
-49.531
-48.866
-48.246
-47.652
-47.073
-46.495
-45.916
-45.328
-44.719
-44.084
-43.412
-42.692
-41.916
-41.08
-40.182
-39.254
-38.34
-37.497
-36.807
-36.33
-36.126
-36.271
-36.831
-37.872
-39.447
-41.563
-44.241
-47.541
-51.501
-56.095
-61.169
-66.412
-71.487
-76.099
-79.902
-82.523
-83.603
-82.908
-80.681
-77.531
-74.134
-71.338
-69.981
-70.79
-74.664
-81.543
-89.622
-96.86
-100.916
-100.79
-98.13
-93.651
-86.381
-72.689
-46.563
-3.022
60.299
141.767
237.607
341.622
443.825
532.096
591.746
606.828
566.407
467.607
313.037
117.005
-96.735
-304.385
-476.509
-591.102
-643.858
-637.293
-588.342
-520.834
-448.948
-385.779
-337.53
-299.651
-269.283
-240.666
-206.97
-169.176
-130
-93.802
-66.808
-50.295
-42.532
-41.129
-42.574
-44.739
-46.85
-47.999
-47.486
-45.078
-40.813
-35.033
-28.346
-21.385
-14.68
-8.828
-4.414
-1.571
-0.118
0.201
-0.234
-1.072
-2.032
-2.741
-2.82
-2.088
-0.505
1.901
5.019
8.779
13.129
17.951
23.096
28.421
33.773
39.063
44.253
49.287
54.11
58.677
62.947
66.915
70.609
74.043
77.233
80.198
82.957
85.553
88.042
90.483
92.939
95.457
98.071
100.81
103.702
106.763
110.007
113.434
117.033
120.797
124.724
128.81
133.049
137.43
141.937
146.553
151.258
156.033
160.859
165.715
170.579
175.431
180.251
185.017
189.711
194.311
198.793
203.13
207.297
211.267
215.014
218.512
221.733
224.654
227.251
229.502
231.388
232.89
233.991
234.676
234.931
234.747
234.114
233.026
231.479
229.471
227.004
224.081
220.708
216.893
212.647
207.984
202.918
197.467
191.649
185.485
178.998
172.213
165.155
157.852
150.333
142.626
134.762
126.772
118.688
110.539
102.357
94.172
86.015
77.913
69.896
61.99
54.223
46.617
39.197
31.985
25
18.261
11.784
5.584
-0.327
-5.938
-11.241
-16.227
-20.893
-25.235
-29.252
-32.944
-36.313
-39.364
-42.101
-44.533
-46.667
-48.514
-50.084
-51.39
-52.445
-53.263
-53.858
-54.247
-54.443
-54.465
-54.328
-54.048
-53.643
-53.129
-52.522
-51.839
-51.096
-50.308
-49.489
-48.654
-47.817
-46.989
-46.184
-45.413
-44.684
-44.009
-43.395
-42.85
-42.381
-41.993
-41.692
-41.48
-41.362
-41.337
-41.409
-41.576
-41.837
-42.191
-42.635
-43.166
-43.781
-44.474
-45.241
-46.076
-46.972
-47.924
-48.923
-49.962
-51.031
-52.122
-53.226
-54.335
-55.438
-56.527
-57.592
-58.624
-59.616
-60.559
-61.444
-62.264
-63.011
-63.679
-64.262
-64.755
-65.152
-65.451
-65.648
-65.742
-65.735
-65.628
-65.422
-65.119
-64.723
-64.238
-63.668
-63.018
-62.289
-61.487
-60.616
-59.685
-58.702
-57.677
-56.617
-55.533
-54.437
-53.339
-52.248
-51.172
-50.113
-49.075
-48.068
-47.1
-46.189
-45.345
-44.576
-43.889
-43.289
-42.774
-42.34
-41.972
-41.642
-41.331
-41.023
-40.707
-40.383
-40.042
-39.676
-39.277
-38.833
-38.334
-37.778
-37.163
-36.497
-35.814
-35.157
-34.592
-34.208
-34.072
-34.253
-34.823
-35.837
-37.362
-39.445
-42.095
-45.335
-49.201
-53.687
-58.752
-64.239
-69.831
-75.221
-80.128
-84.203
-87.112
-88.545
-88.28
-86.508
-83.776
-80.682
-77.781
-75.683
-75.061
-76.526
-80.673
-86.66
-92.063
-94.729
-92.388
-84.612
-74.09
-61.816
-47.271
-28.652
1.066
47.531
112.44
196.384
292.469
388.902
473.157
529.754
544.499
508.885
420.633
283.135
109.121
-82.461
-271.995
-435.495
-553.692
-618.256
-627.565
-592.416
-531.761
-461.899
-397.236
-347.673
-313.492
-291.767
-278.233
-263.258
-240.6
-208.911
-167.532
-123.227
-84.833
-56.153
-40.142
-35.139
-35.47
-38.063
-40.593
-41.663
-41.897
-41.391
-39.887
-37.419
-33.953
-29.736
-25.317
-21.337
-18.38
-16.65
-16.076
-16.477
-17.523
-18.891
-20.299
-21.362
-21.709
-21.159
-19.648
-17.204
-13.95
-9.977
-5.365
-0.255
5.189
10.812
16.459
22.038
27.497
32.769
37.802
42.555
46.994
51.127
54.974
58.553
61.887
65.002
67.925
70.703
73.388
76.034
78.704
81.444
84.287
87.263
90.392
93.687
97.159
100.804
104.61
108.569
112.673
116.913
121.282
125.767
130.351
135.016
139.742
144.507
149.292
154.077
158.841
163.564
168.225
172.804
177.284
181.642
185.856
189.902
193.754
197.388
200.779
203.903
206.735
209.252
211.434
213.26
214.712
215.774
216.432
216.671
216.482
215.855
214.783
213.263
211.291
208.869
205.999
202.685
198.936
194.761
190.173
185.184
179.812
174.075
167.992
161.587
154.882
147.902
140.675
133.227
125.589
117.79
109.861
101.831
93.734
85.599
77.457
69.338
61.273
53.29
45.417
37.681
30.106
22.717
15.536
8.584
1.88
-4.56
-10.719
-16.585
-22.146
-27.393
-32.319
-36.919
-41.189
-45.128
-48.737
-52.018
-54.975
-57.616
-59.947
-61.979
-63.722
-65.188
-66.391
-67.346
-68.067
-68.572
-68.878
-69.001
-68.959
-68.771
-68.455
-68.028
-67.508
-66.913
-66.261
-65.566
-64.846
-64.114
-63.386
-62.675
-61.992
-61.35
-60.758
-60.225
-59.761
-59.37
-59.059
-58.833
-58.695
-58.647
-58.69
-58.825
-59.05
-59.362
-59.759
-60.236
-60.787
-61.408
-62.091
-62.829
-63.614
-64.438
-65.293
-66.17
-67.06
-67.954
-68.843
-69.716
-70.565
-71.38
-72.154
-72.876
-73.539
-74.135
-74.657
-75.1
-75.457
-75.724
-75.894
-75.966
-75.935
-75.799
-75.557
-75.209
-74.753
-74.193
-73.531
-72.773
-71.925
-70.993
-69.984
-68.905
-67.766
-66.573
-65.335
-64.056
-62.744
-61.406
-60.052
-58.69
-57.331
-55.984
-54.661
-53.372
-52.124
-50.927
-49.787
-48.704
-47.682
-46.725
-45.839
-45.037
-44.332
-43.728
-43.232
-42.844
-42.557
-42.364
-42.245
-42.171
-42.118
-42.063
-41.983
-41.871
-41.715
-41.508
-41.245
-40.906
-40.468
-39.93
-39.296
-38.576
-37.818
-37.065
-36.375
-35.845
-35.551
-35.572
-35.997
-36.893
-38.317
-40.308
-42.858
-45.978
-49.73
-54.109
-59.029
-64.294
-69.552
-74.484
-78.841
-82.305
-84.491
-85.073
-83.878
-81.15
-77.505
-73.514
-69.808
-67.086
-65.942
-67.204
-70.709
-74.389
-76.182
-74.198
-68.138
-61.198
-55.127
-48.044
-35.618
-9.669
36.47
102.306
183.891
273.997
362.672
442.595
504.809
538.263
532.742
478.689
373.342
219.786
30.183
-173.32
-367.251
-523.578
-621.558
-657.49
-636.476
-576.947
-500.711
-420.447
-346.104
-282.236
-229.448
-189.362
-160.373
-138.039
-117.749
-96.962
-76.368
-59.006
-48.338
-44.764
-46.267
-50.046
-53.075
-53.902
-52.242
-48.204
-42.378
-35.359
-27.702
-20.107
-13.202
-7.516
-3.493
-1.189
-0.37
-0.72
-1.847
-3.392
-5.047
-6.449
-7.245
-7.253
-6.417
-4.758
-2.359
0.725
4.457
8.747
13.468
18.494
23.69
28.949
34.208
39.408
44.488
49.387
54.051
58.452
62.592
66.483
70.136
73.558
76.765
79.785
82.667
85.461
88.224
91.01
93.859
96.802
99.868
103.076
106.442
109.97
113.656
117.49
121.464
125.572
129.809
134.165
138.624
143.17
147.784
152.446
157.134
161.828
166.508
171.152
175.741
180.255
184.676
188.983
193.157
197.174
201.012
204.644
208.047
211.196
214.069
216.64
218.888
220.793
222.336
223.499
224.267
224.627
224.566
224.075
223.146
221.773
219.953
217.686
214.973
211.818
208.227
204.209
199.775
194.938
189.713
184.118
178.171
171.892
165.304
158.43
151.297
143.931
136.359
128.61
120.713
112.699
104.597
96.438
88.253
80.071
71.922
63.833
55.834
47.95
40.207
32.629
25.24
18.059
11.107
4.402
-2.041
-8.208
-14.086
-19.665
-24.937
-29.895
-34.534
-38.852
-42.848
-46.523
-49.879
-52.92
-55.652
-58.082
-60.219
-62.073
-63.653
-64.974
-66.047
-66.886
-67.507
-67.924
-68.152
-68.209
-68.109
-67.87
-67.508
-67.039
-66.478
-65.842
-65.146
-64.405
-63.632
-62.841
-62.045
-61.257
-60.486
-59.744
-59.039
-58.381
-57.777
-57.234
-56.758
-56.353
-56.025
-55.776
-55.608
-55.523
-55.522
-55.605
-55.77
-56.015
-56.337
-56.735
-57.204
-57.739
-58.336
-58.99
-59.694
-60.443
-61.231
-62.048
-62.889
-63.746
-64.61
-65.474
-66.33
-67.17
-67.985
-68.769
-69.513
-70.211
-70.855
-71.44
-71.957
-72.402
-72.769
-73.054
-73.254
-73.364
-73.381
-73.306
-73.139
-72.881
-72.535
-72.1
-71.581
-70.982
-70.306
-69.558
-68.741
-67.858
-66.913
-65.915
-64.871
-63.789
-62.676
-61.543
-60.397
-59.252
-58.116
-56.996
-55.895
-54.817
-53.767
-52.757
-51.799
-50.904
-50.075
-49.318
-48.64
-48.042
-47.52
-47.059
-46.634
-46.224
-45.814
-45.399
-44.978
-44.545
-44.089
-43.6
-43.067
-42.491
-41.879
-41.223
-40.522
-39.796
-39.086
-38.463
-38.019
-37.823
-37.921
-38.369
-39.217
-40.521
-42.349
-44.747
-47.725
-51.294
-55.487
-60.307
-65.709
-71.515
-77.372
-82.853
-87.567
-91.14
-93.211
-93.515
-91.918
-88.633
-84.353
-80.023
-76.558
-74.701
-75.161
-78.472
-84.874
-94.071
-103.889
-110.581
-110.834
-101.797
-84.157
-62.008
-37.34
-11.285
20.369
67.071
133.936
223.234
328.74
433.89
521.4
573.82
577.94
529.428
429.875
285.199
107.84
-84.681
-272.17
-431.808
-546.817
-610.812
-627.466
-608.224
-564.262
-505.456
-437.734
-366.603
-301.322
-246.675
-205.054
-174.567
-146.888
-118.518
-89.899
-63.629
-45.416
-36.908
-36.081
-40.246
-45.725
-50.286
-53.18
-53.729
-51.825
-47.764
-41.929
-34.994
-27.754
-20.882
-15.004
-10.667
-8.004
-6.817
-6.815
-7.597
-8.765
-9.982
-10.874
-11.088
-10.467
-8.996
-6.715
-3.735
-0.132
4.033
8.64
13.552
18.633
23.746
28.812
33.791
38.63
43.275
47.679
51.807
55.657
59.256
62.619
65.762
68.705
71.471
74.103
76.656
79.189
81.762
84.42
87.196
90.122
93.224
96.517
100.015
103.718
107.613
111.695
115.958
120.397
125.004
129.767
134.665
139.68
144.792
149.979
155.218
160.486
165.761
171.018
176.235
181.389
186.458
191.416
196.238
200.894
205.357
209.597
213.585
217.293
220.692
223.755
226.458
228.776
230.687
232.172
233.213
233.794
233.901
233.524
232.655
231.289
229.421
227.053
224.187
220.829
216.987
212.672
207.897
202.679
197.035
190.986
184.555
177.765
170.644
163.219
155.521
147.579
139.428
131.099
122.627
114.046
105.392
96.699
88.002
79.335
70.73
62.222
53.839
45.613
37.57
29.737
22.138
14.796
7.732
0.963
-5.494
-11.625
-17.419
-22.866
-27.958
-32.692
-37.063
-41.072
-44.719
-48.008
-50.944
-53.534
-55.786
-57.711
-59.321
-60.628
-61.648
-62.396
-62.889
-63.146
-63.185
-63.025
-62.685
-62.185
-61.544
-60.782
-59.918
-58.97
-57.958
-56.899
-55.809
-54.706
-53.605
-52.519
-51.463
-50.449
-49.487
-48.589
-47.762
-47.014
-46.352
-45.782
-45.309
-44.936
-44.666
-44.5
-44.44
-44.484
-44.63
-44.877
-45.219
-45.653
-46.173
-46.774
-47.449
-48.19
-48.992
-49.845
-50.743
-51.675
-52.634
-53.609
-54.593
-55.575
-56.546
-57.498
-58.421
-59.309
-60.153
-60.946
-61.68
-62.35
-62.95
-63.472
-63.913
-64.267
-64.531
-64.702
-64.776
-64.754
-64.634
-64.417
-64.107
-63.704
-63.214
-62.642
-61.993
-61.274
-60.491
-59.651
-58.759
-57.82
-56.843
-55.836
-54.805
-53.76
-52.707
-51.656
-50.618
-49.604
-48.62
-47.668
-46.744
-45.85
-44.989
-44.169
-43.403
-42.698
-42.059
-41.495
-41.012
-40.616
-40.306
-40.069
-39.876
-39.701
-39.529
-39.364
-39.217
-39.097
-38.998
-38.885
-38.727
-38.513
-38.233
-37.897
-37.498
-36.985
-36.406
-35.907
-35.64
-35.792
-36.441
-37.47
-38.874
-40.787
-43.152
-45.837
-48.716
-51.444
-53.989
-56.707
-59.594
-62.438
-65.231
-67.849
-70.217
-72.659
-75.007
-76.7
-77.866
-78.849
-79.898
-81.498
-83.995
-87.324
-91.799
-98.096
-105.196
-110.656
-112.35
-107.613
-95.858
-80.659
-63.936
-45.879
-25.472
5.172
53.706
123.404
216.338
325.215
435.275
530.266
591.218
603.025
559.108
460.628
314.69
134.306
-62.894
-258.391
-430.79
-559.948
-635.055
-654.361
-624.979
-562.844
-484.758
-403.627
-331.682
-275.447
-234.348
-206.244
-183.784
-158.97
-130.488
-99.677
-71.037
-50.384
-38.651
-34.171
-34.437
-36.031
-37.309
-37.76
-36.678
-34.011
-29.983
-24.757
-18.808
-12.719
-6.932
-1.993
1.496
3.358
3.739
2.908
1.265
-0.82
-3.042
-5.034
-6.389
-6.885
-6.45
-5.093
-2.909
0.025
3.656
7.891
12.592
17.628
22.866
28.182
33.503
38.762
43.88
48.803
53.485
57.898
62.049
65.957
69.634
73.101
76.385
79.513
82.529
85.483
88.426
91.418
94.503
97.71
101.069
104.599
108.311
112.211
116.293
120.542
124.946
129.497
134.181
138.988
143.902
148.904
153.973
159.086
164.22
169.352
174.46
179.52
184.51
189.408
194.191
198.838
203.329
207.637
211.737
215.603
219.207
222.526
225.533
228.204
230.516
232.447
233.978
235.092
235.773
236.009
235.787
235.097
233.934
232.293
230.171
227.568
224.488
220.936
216.92
212.45
207.539
202.204
196.46
190.328
183.829
176.987
169.826
162.374
154.659
146.71
138.559
130.237
121.777
113.211
104.574
95.899
87.218
78.564
69.969
61.462
53.075
44.834
36.768
28.901
21.257
13.859
6.727
-0.121
-6.669
-12.901
-18.808
-24.377
-29.602
-34.477
-38.999
-43.167
-46.98
-50.442
-53.558
-56.332
-58.774
-60.894
-62.703
-64.213
-65.438
-66.395
-67.098
-67.566
-67.815
-67.864
-67.731
-67.434
-66.992
-66.423
-65.746
-64.979
-64.141
-63.247
-62.316
-61.363
-60.404
-59.453
-58.524
-57.629
-56.779
-55.986
-55.257
-54.602
-54.027
-53.539
-53.142
-52.841
-52.637
-52.532
-52.527
-52.621
-52.811
-53.096
-53.471
-53.932
-54.475
-55.094
-55.783
-56.535
-57.344
-58.203
-59.104
-60.039
-60.999
-61.975
-62.959
-63.942
-64.915
-65.868
-66.794
-67.684
-68.53
-69.324
-70.061
-70.733
-71.333
-71.856
-72.296
-72.651
-72.916
-73.088
-73.165
-73.147
-73.035
-72.832
-72.54
-72.163
-71.705
-71.171
-70.566
-69.896
-69.165
-68.378
-67.538
-66.652
-65.728
-64.774
-63.799
-62.812
-61.82
-60.836
-59.868
-58.925
-58.01
-57.126
-56.275
-55.464
-54.699
-53.994
-53.36
-52.802
-52.326
-51.936
-51.63
-51.399
-51.231
-51.098
-50.98
-50.864
-50.735
-50.593
-50.432
-50.244
-50.023
-49.756
-49.431
-49.041
-48.58
-48.054
-47.493
-46.94
-46.454
-46.116
-45.988
-46.132
-46.617
-47.496
-48.832
-50.673
-53.023
-55.904
-59.364
-63.424
-68.059
-73.123
-78.285
-83.209
-87.612
-91.171
-93.576
-94.53
-93.809
-91.609
-88.602
-85.519
-82.993
-81.67
-82.108
-84.848
-90.527
-98.066
-104.663
-108.086
-105.921
-98.61
-89.84
-79.44
-65.757
-44.459
-6.662
49.506
121.792
206.172
292.015
372.062
440.16
486.514
503.072
479.788
407.62
284.948
118.088
-75.668
-270.766
-440.209
-561.447
-624.875
-634.079
-600.861
-543.884
-478.836
-416.396
-366.024
-328.014
-299.07
-275.075
-247.259
-213.232
-175.54
-137.495
-105.696
-83.124
-68.543
-60.19
-55.296
-51.903
-49.439
-47.404
-45.171
-42.133
-38.04
-32.979
-27.185
-21.119
-15.201
-9.769
-5.33
-2.283
-0.66
-0.331
-1.018
-2.354
-4.042
-5.774
-7.19
-7.977
-7.963
-7.092
-5.395
-2.942
0.203
3.964
8.24
12.897
17.806
22.862
27.96
33.027
38.002
42.809
47.397
51.739
55.823
59.653
63.251
66.635
69.826
72.867
75.791
78.646
81.482
84.348
87.3
90.382
93.627
97.059
100.697
104.547
108.614
112.891
117.365
122.022
126.85
131.831
136.953
142.197
147.54
152.959
158.426
163.916
169.402
174.86
180.264
185.588
190.807
195.895
200.831
205.587
210.139
214.456
218.512
222.279
225.731
228.84
231.583
233.936
235.878
237.389
238.453
239.057
239.188
238.835
237.991
236.652
234.815
232.481
229.653
226.337
222.54
218.274
213.552
208.391
202.808
196.823
190.458
183.737
176.686
169.331
161.702
153.827
145.739
137.469
129.051
120.517
111.901
103.237
94.559
85.898
77.287
68.758
60.34
52.061
43.95
36.031
28.329
20.865
13.66
6.732
0.098
-6.23
-12.238
-17.918
-23.261
-28.263
-32.918
-37.227
-41.189
-44.805
-48.081
-51.022
-53.635
-55.928
-57.914
-59.602
-61.007
-62.143
-63.024
-63.667
-64.087
-64.303
-64.331
-64.189
-63.894
-63.463
-62.915
-62.265
-61.53
-60.726
-59.869
-58.972
-58.05
-57.115
-56.18
-55.255
-54.351
-53.477
-52.642
-51.854
-51.118
-50.442
-49.83
-49.287
-48.815
-48.419
-48.099
-47.856
-47.692
-47.604
-47.593
-47.656
-47.793
-47.999
-48.273
-48.611
-49.009
-49.466
-49.976
-50.536
-51.141
-51.789
-52.474
-53.193
-53.941
-54.714
-55.508
-56.32
-57.143
-57.976
-58.814
-59.652
-60.486
-61.312
-62.125
-62.922
-63.697
-64.446
-65.165
-65.85
-66.496
-67.099
-67.657
-68.164
-68.617
-69.014
-69.352
-69.627
-69.836
-69.978
-70.049
-70.049
-69.976
-69.828
-69.605
-69.307
-68.935
-68.494
-67.986
-67.414
-66.781
-66.093
-65.355
-64.572
-63.748
-62.884
-61.986
-61.058
-60.106
-59.138
-58.163
-57.185
-56.214
-55.256
-54.318
-53.407
-52.524
-51.669
-50.843
-50.05
-49.3
-48.608
-47.988
-47.446
-46.988
-46.615
-46.324
-46.11
-45.959
-45.84
-45.733
-45.62
-45.488
-45.337
-45.165
-44.957
-44.699
-44.363
-43.927
-43.381
-42.73
-41.985
-41.174
-40.342
-39.548
-38.878
-38.422
-38.261
-38.467
-39.104
-40.23
-41.886
-44.134
-47.049
-50.653
-54.917
-59.692
-64.689
-69.585
-74.086
-77.86
-80.54
-81.86
-81.676
-80.173
-77.959
-75.791
-74.311
-74.005
-75.389
-78.854
-84.568
-92.329
-100.253
-105.131
-104.56
-96.332
-80.879
-61.855
-39.719
-14.259
17.024
61.712
121.311
194.582
279.037
364.291
442.308
504.593
537.106
529.072
470.476
356.413
194.525
1.524
-197.86
-377.159
-514.168
-595.902
-622.387
-601.729
-550.226
-485.653
-420.136
-363.618
-317.584
-278.335
-242.879
-205.403
-165.13
-125.637
-90.09
-63.624
-48.102
-41.529
-41.6
-45.13
-49.465
-53.421
-56.041
-56.507
-54.678
-50.84
-45.435
-39.088
-32.561
-26.453
-21.319
-17.76
-15.849
-15.304
-15.838
-17.054
-18.577
-20.134
-21.375
-21.918
-21.593
-20.376
-18.291
-15.454
-11.941
-7.795
-3.136
1.887
7.123
12.418
17.675
22.853
27.898
32.756
37.381
41.732
45.801
49.613
53.18
56.516
59.635
62.557
65.321
67.982
70.6
73.237
75.942
78.745
81.678
84.765
88.022
91.461
95.083
98.874
102.83
106.945
111.216
115.639
120.201
124.887
129.68
134.56
139.508
144.506
149.532
154.566
159.589
164.578
169.516
174.384
179.159
183.82
188.34
192.694
196.856
200.801
204.503
207.935
211.073
213.894
216.376
218.499
220.243
221.592
222.531
223.044
223.122
222.755
221.935
220.658
218.922
216.726
214.074
210.969
207.419
203.434
199.026
194.208
188.997
183.411
177.469
171.193
164.607
157.736
150.605
143.242
135.676
127.935
120.051
112.053
103.972
95.839
87.685
79.539
71.43
63.387
55.439
47.611
39.928
32.415
25.093
17.985
11.109
4.483
-1.877
-7.958
-13.748
-19.235
-24.413
-29.275
-33.815
-38.031
-41.923
-45.491
-48.737
-51.665
-54.28
-56.59
-58.603
-60.328
-61.775
-62.958
-63.887
-64.578
-65.045
-65.301
-65.364
-65.247
-64.968
-64.542
-63.984
-63.31
-62.537
-61.678
-60.75
-59.767
-58.741
-57.688
-56.619
-55.547
-54.483
-53.437
-52.419
-51.439
-50.505
-49.625
-48.806
-48.053
-47.373
-46.771
-46.249
-45.813
-45.463
-45.202
-45.03
-44.949
-44.956
-45.052
-45.236
-45.504
-45.856
-46.287
-46.796
-47.377
-48.028
-48.743
-49.517
-50.345
-51.222
-52.141
-53.098
-54.085
-55.096
-56.126
-57.168
-58.215
-59.26
-60.296
-61.315
-62.311
-63.276
-64.202
-65.083
-65.912
-66.682
-67.388
-68.024
-68.584
-69.064
-69.459
-69.766
-69.979
-70.097
-70.118
-70.038
-69.857
-69.575
-69.193
-68.715
-68.145
-67.486
-66.743
-65.923
-65.031
-64.075
-63.059
-61.988
-60.867
-59.703
-58.505
-57.282
-56.042
-54.794
-53.549
-52.316
-51.103
-49.92
-48.771
-47.656
-46.581
-45.549
-44.57
-43.66
-42.832
-42.092
-41.446
-40.901
-40.452
-40.097
-39.823
-39.602
-39.414
-39.243
-39.071
-38.896
-38.712
-38.502
-38.251
-37.937
-37.536
-37.041
-36.453
-35.776
-35.039
-34.29
-33.583
-33.005
-32.641
-32.561
-32.844
-33.563
-34.774
-36.521
-38.851
-41.812
-45.435
-49.713
-54.527
-59.623
-64.706
-69.483
-73.625
-76.756
-78.559
-78.799
-77.523
-75.23
-72.52
-69.917
-68.137
-67.963
-70.01
-74.977
-82.231
-89.129
-93.243
-92.271
-85.863
-77.534
-69.178
-59.762
-45.247
-15.66
36.733
113.026
210.046
316.566
419.477
508.952
573.69
604.041
590.793
523.706
400.256
227.006
20.742
-190.124
-377.099
-518.106
-600.54
-628.777
-614.475
-569.298
-507.553
-436.529
-362.661
-296.923
-243.095
-203.369
-175.689
-150.051
-122.414
-92.631
-62.999
-40.556
-27.723
-22.945
-24.084
-26.956
-29.047
-29.821
-28.551
-25.25
-20.355
-14.097
-7.001
0.11
6.622
11.968
15.533
17.195
17.165
15.727
13.341
10.472
7.485
4.779
2.759
1.625
1.448
2.235
3.896
6.366
9.591
13.468
17.884
22.717
27.844
33.158
38.553
43.929
49.199
54.291
59.155
63.763
68.108
72.191
76.03
79.644
83.06
86.314
89.439
92.478
95.481
98.499
101.592
104.806
108.172
111.718
115.459
119.404
123.554
127.903
132.436
137.143
142.009
147.022
152.17
157.438
162.805
168.25
173.747
179.273
184.803
190.315
195.783
201.183
206.491
211.683
216.736
221.625
226.324
230.804
235.036
238.992
242.646
245.969
248.935
251.519
253.698
255.451
256.76
257.608
257.981
257.865
257.25
256.129
254.497
252.352
249.694
246.526
242.853
238.684
234.03
228.904
223.324
217.306
210.871
204.042
196.844
189.304
181.45
173.312
164.921
156.31
147.513
138.565
129.5
120.353
111.16
101.956
92.776
83.652
74.617
65.704
56.941
48.358
39.982
31.837
23.948
16.337
9.021
2.019
-4.655
-10.986
-16.966
-22.584
-27.835
-32.715
-37.222
-41.355
-45.117
-48.512
-51.546
-54.227
-56.564
-58.569
-60.255
-61.634
-62.724
-63.539
-64.096
-64.415
-64.512
-64.407
-64.117
-63.663
-63.063
-62.336
-61.499
-60.572
-59.571
-58.513
-57.415
-56.291
-55.156
-54.025
-52.909
-51.821
-50.772
-49.771
-48.828
-47.952
-47.149
-46.425
-45.787
-45.237
-44.78
-44.417
-44.15
-43.98
-43.907
-43.928
-44.044
-44.252
-44.549
-44.932
-45.397
-45.941
-46.56
-47.248
-48.001
-48.813
-49.678
-50.59
-51.545
-52.537
-53.558
-54.604
-55.667
-56.743
-57.825
-58.906
-59.98
-61.04
-62.079
-63.091
-64.069
-65.006
-65.897
-66.735
-67.515
-68.233
-68.883
-69.461
-69.963
-70.384
-70.721
-70.972
-71.133
-71.202
-71.177
-71.058
-70.845
-70.542
-70.151
-69.674
-69.114
-68.477
-67.767
-66.989
-66.146
-65.242
-64.28
-63.266
-62.206
-61.109
-59.982
-58.834
-57.673
-56.51
-55.354
-54.213
-53.091
-51.988
-50.909
-49.859
-48.845
-47.882
-46.983
-46.154
-45.405
-44.742
-44.162
-43.661
-43.226
-42.83
-42.455
-42.087
-41.712
-41.327
-40.925
-40.497
-40.035
-39.528
-38.96
-38.321
-37.609
-36.828
-36.011
-35.206
-34.475
-33.9
-33.551
-33.496
-33.814
-34.57
-35.833
-37.659
-40.063
-43.066
-46.73
-51.069
-56.032
-61.45
-66.966
-72.215
-76.91
-80.717
-83.275
-84.316
-83.701
-81.656
-78.944
-76.357
-74.472
-73.975
-75.506
-79.504
-86.407
-94.993
-102.076
-104.862
-100.639
-89.86
-76.646
-62.623
-48.15
-28.377
7.36
64.864
146.845
248.282
353.731
448.427
516.312
544.181
526.719
460.479
348.097
198.12
22.795
-158.196
-323.666
-455.125
-539.461
-575.986
-572.076
-539.573
-492.98
-441.516
-391.993
-348.616
-310.367
-276.085
-242.39
-206.213
-168.912
-133.171
-103.049
-81.622
-68.453
-61.454
-58.103
-56.407
-55.313
-54.229
-52.559
-49.625
-45.258
-39.773
-33.52
-26.979
-20.649
-14.887
-10.211
-7.117
-5.659
-5.625
-6.693
-8.465
-10.609
-12.841
-14.804
-16.139
-16.654
-16.287
-15.064
-13.073
-10.381
-7.044
-3.149
1.179
5.815
10.633
15.511
20.376
25.165
29.806
34.247
38.448
42.387
46.075
49.534
52.782
55.845
58.753
61.538
64.247
66.933
69.65
72.459
75.404
78.519
81.833
85.366
89.129
93.13
97.362
101.812
106.469
111.323
116.361
121.571
126.936
132.436
138.047
143.745
149.503
155.298
161.102
166.89
172.636
178.314
183.897
189.362
194.681
199.824
204.763
209.466
213.902
218.043
221.858
225.319
228.4
231.075
233.322
235.121
236.452
237.3
237.651
237.492
236.815
235.613
233.883
231.625
228.84
225.532
221.711
217.385
212.568
207.276
201.527
195.34
188.738
181.746
174.39
166.698
158.702
150.433
141.923
133.207
124.319
115.297
106.174
96.987
87.772
78.564
69.398
60.306
51.321
42.475
33.798
25.317
17.06
9.051
1.312
-6.134
-13.27
-20.079
-26.547
-32.661
-38.412
-43.791
-48.794
-53.417
-57.659
-61.521
-65.005
-68.117
-70.863
-73.252
-75.295
-77.003
-78.39
-79.47
-80.259
-80.773
-81.029
-81.046
-80.842
-80.435
-79.846
-79.092
-78.194
-77.169
-76.037
-74.816
-73.522
-72.175
-70.789
-69.381
-67.965
-66.556
-65.166
-63.809
-62.495
-61.235
-60.039
-58.915
-57.869
-56.91
-56.041
-55.269
-54.595
-54.023
-53.556
-53.193
-52.936
-52.784
-52.736
-52.79
-52.945
-53.198
-53.545
-53.983
-54.507
-55.115
-55.8
-56.559
-57.386
-58.276
-59.224
-60.224
-61.271
-62.358
-63.478
-64.625
-65.794
-66.977
-68.168
-69.36
-70.547
-71.723
-72.881
-74.015
-75.119
-76.186
-77.21
-78.184
-79.103
-79.96
-80.75
-81.467
-82.105
-82.661
-83.129
-83.507
-83.789
-83.974
-84.057
-84.037
-83.911
-83.679
-83.339
-82.891
-82.337
-81.68
-80.925
-80.076
-79.138
-78.117
-77.022
-75.858
-74.634
-73.354
-72.024
-70.649
-69.237
-67.796
-66.336
-64.866
-63.395
-61.935
-60.496
-59.086
-57.714
-56.387
-55.104
-53.872
-52.695
-51.582
-50.551
-49.615
-48.78
-48.056
-47.443
-46.939
-46.54
-46.23
-45.983
-45.777
-45.592
-45.409
-45.226
-45.034
-44.824
-44.588
-44.301
-43.941
-43.505
-42.998
-42.436
-41.857
-41.292
-40.793
-40.44
-40.313
-40.499
-41.075
-42.1
-43.631
-45.696
-48.332
-51.603
-55.525
-60.038
-64.993
-70.106
-75.053
-79.577
-83.385
-86.122
-87.517
-87.422
-86
-83.777
-81.462
-79.667
-78.825
-79.499
-82.206
-87.175
-94.264
-101.691
-106.154
-105.038
-96.282
-80.879
-63.04
-44.408
-25.205
-0.582
39.151
98.483
178.654
273.299
367.585
448.803
503.931
522.178
498.067
426.466
306.957
146.584
-39.995
-229.595
-396.8
-519.65
-586.449
-599.625
-569.586
-512.708
-445.375
-376.935
-315.157
-264.22
-222.997
-191.133
-165.24
-140.364
-116.181
-93.375
-74.005
-61.655
-56.462
-56.554
-59.558
-62.33
-63.109
-61.412
-57.205
-51.037
-43.522
-35.221
-26.846
-19.093
-12.603
-7.897
-5.099
-3.993
-4.209
-5.348
-7.049
-9.01
-10.909
-12.366
-13.146
-13.163
-12.412
-10.961
-8.866
-6.139
-2.82
0.98
5.144
9.536
14.011
18.502
22.959
27.328
31.569
35.627
39.457
43.057
46.445
49.633
52.633
55.451
58.097
60.614
63.06
65.496
67.988
70.582
73.309
76.199
79.275
82.557
86.054
89.765
93.676
97.78
102.073
106.552
111.213
116.042
121.02
126.129
131.345
136.65
142.02
147.431
152.86
158.282
163.676
169.02
174.292
179.468
184.521
189.423
194.146
198.661
202.94
206.954
210.673
214.072
217.125
219.807
222.098
223.976
225.425
226.426
226.967
227.034
226.618
225.712
224.311
222.411
220.014
217.122
213.741
209.879
205.547
200.758
195.528
189.874
183.818
177.38
170.586
163.46
156.031
148.327
140.379
132.218
123.877
115.39
106.789
98.11
89.385
80.647
71.929
63.263
54.68
46.21
37.882
29.722
21.757
14.01
6.505
-0.739
-7.701
-14.367
-20.722
-26.752
-32.448
-37.801
-42.806
-47.459
-51.758
-55.704
-59.298
-62.544
-65.449
-68.02
-70.266
-72.198
-73.828
-75.17
-76.236
-77.044
-77.608
-77.946
-78.074
-78.011
-77.774
-77.38
-76.849
-76.197
-75.441
-74.599
-73.688
-72.722
-71.719
-70.691
-69.654
-68.619
-67.6
-66.607
-65.651
-64.74
-63.883
-63.086
-62.357
-61.7
-61.12
-60.62
-60.204
-59.873
-59.628
-59.471
-59.401
-59.418
-59.519
-59.705
-59.971
-60.315
-60.736
-61.228
-61.788
-62.413
-63.098
-63.841
-64.635
-65.477
-66.362
-67.286
-68.243
-69.23
-70.241
-71.271
-72.316
-73.371
-74.431
-75.493
-76.551
-77.602
-78.641
-79.664
-80.666
-81.643
-82.59
-83.503
-84.377
-85.208
-85.99
-86.72
-87.394
-88.006
-88.553
-89.033
-89.441
-89.774
-90.028
-90.202
-90.293
-90.3
-90.221
-90.055
-89.803
-89.466
-89.048
-88.551
-87.98
-87.338
-86.631
-85.863
-85.04
-84.167
-83.247
-82.284
-81.283
-80.25
-79.194
-78.122
-77.04
-75.958
-74.885
-73.83
-72.801
-71.803
-70.838
-69.907
-69.018
-68.175
-67.393
-66.683
-66.049
-65.498
-65.036
-64.661
-64.368
-64.143
-63.959
-63.793
-63.631
-63.458
-63.268
-63.053
-62.799
-62.499
-62.143
-61.718
-61.218
-60.64
-59.984
-59.284
-58.586
-57.953
-57.471
-57.207
-57.222
-57.592
-58.383
-59.658
-61.467
-63.818
-66.721
-70.224
-74.367
-79.128
-84.357
-89.757
-94.991
-99.746
-103.692
-106.468
-107.68
-107.061
-104.798
-101.419
-97.57
-94.082
-91.723
-91.163
-93.387
-98.464
-104.596
-109.87
-112.186
-110.629
-107.8
-105.165
-100.719
-90.19
-65.413
-19.227
48.22
133.102
228.461
324.114
413.161
488.086
538.19
554.069
525.327
444.294
311.426
135.056
-66.713
-267.199
-438.767
-560.82
-624.906
-638.039
-615.83
-572.007
-516.066
-450.831
-377.489
-303.511
-238.246
-189.119
-158.802
-140.858
-125.948
-109.036
-89.319
-70.651
-58.169
-52.947
-53.315
-56.421
-59.064
-59.799
-58.352
-54.809
-49.692
-43.506
-36.737
-30.01
-23.893
-18.875
-15.376
-13.451
-12.877
-13.367
-14.551
-16.063
-17.59
-18.778
-19.291
-18.967
-17.778
-15.75
-12.978
-9.528
-5.451
-0.862
4.098
9.284
14.546
19.792
24.975
30.039
34.925
39.585
43.978
48.097
51.967
55.602
59.015
62.223
65.246
68.128
70.924
73.695
76.506
79.405
82.427
85.604
88.96
92.514
96.278
100.252
104.423
108.785
113.333
118.062
122.967
128.034
133.245
138.582
144.024
149.548
155.135
160.76
166.4
172.035
177.64
183.195
188.679
194.067
199.335
204.453
209.394
214.128
218.627
222.863
226.806
230.428
233.705
236.612
239.126
241.227
242.895
244.112
244.863
245.136
244.919
244.206
242.992
241.276
239.058
236.343
233.139
229.454
225.303
220.699
215.659
210.202
204.35
198.126
191.555
184.665
177.484
170.044
162.376
154.515
146.495
138.349
130.115
121.827
113.521
105.231
96.991
88.836
80.798
72.909
65.201
57.7
50.434
43.425
36.696
30.266
24.149
18.357
12.899
7.78
3.006
-1.42
-5.495
-9.219
-12.594
-15.622
-18.305
-20.652
-22.672
-24.382
-25.799
-26.946
-27.844
-28.517
-28.987
-29.273
-29.4
-29.39
-29.266
-29.054
-28.781
-28.473
-28.166
-27.888
-27.657
-27.49
-27.388
-27.341
-27.337
-27.353
-27.365
-27.367
-27.352
-27.313
-27.247
-27.145
-27.007
-26.856
-26.703
-26.552
-26.407
-26.246
-26.083
-25.995
-26.03
-26.189
-26.405
-26.558
-26.618
-26.697
-26.901
-27.214
-27.632
-28.246
-29.353
-31.343
-34.337
-38.064
-42.032
