Name,Waqar Muhammad
Date of Birth,"Jul 5, 1993"
Recorded Date,2024-01-17 13:00:06 -0500
Classification,Sinus Rhythm
Symptoms,
Software Version,1.90
Device,"Watch6,7"
Sample Rate,512 hertz


Lead,Lead I
Unit,µV

246.44
380.018
528.468
680.267
828.345
966.84
1088.776
1176.47
1211.991
1186.837
1101.041
967.153
802.198
620.056
435.323
262.861
114.715
-1.081
-84.866
-146.413
-196.189
-239.624
-276.714
-302.565
-314.476
-315.563
-311.709
-309.39
-312.134
-319.939
-331.558
-345.453
-360.304
-374.701
-386.95
-395.482
-399.621
-399.717
-396.591
-391.273
-384.766
-377.93
-371.638
-366.71
-363.547
-362.188
-362.495
-364.168
-366.916
-370.528
-374.73
-379.238
-383.833
-388.267
-392.301
-395.723
-398.289
-399.814
-400.196
-399.36
-397.285
-393.995
-389.527
-383.959
-377.397
-369.932
-361.656
-352.659
-343.023
-332.855
-322.273
-311.392
-300.331
-289.18
-277.995
-266.824
-255.693
-244.612
-233.585
-222.599
-211.631
-200.669
-189.709
-178.75
-167.795
-156.845
-145.894
-134.94
-123.981
-113.018
-102.059
-91.112
-80.185
-69.292
-58.451
-47.678
-36.996
-26.424
-15.976
-5.67
4.482
14.463
24.257
33.849
43.223
52.363
61.251
69.868
78.195
86.214
93.906
101.253
108.239
114.846
121.058
126.863
132.247
137.199
141.71
145.773
149.38
152.53
155.219
157.448
159.219
160.535
161.403
161.831
161.827
161.404
160.575
159.354
157.757
155.804
153.512
150.903
147.999
144.822
141.398
137.752
133.911
129.904
125.758
121.502
117.165
112.777
108.365
103.959
99.584
95.268
91.035
86.911
82.917
79.074
75.403
71.921
68.644
65.588
62.763
60.182
57.853
55.785
53.982
52.449
51.188
50.2
49.485
49.04
48.862
48.945
49.282
49.864
50.682
51.725
52.98
54.433
56.071
57.878
59.839
61.936
64.154
66.475
68.882
71.36
73.89
76.457
79.045
81.639
84.224
86.786
89.312
91.79
94.208
96.554
98.818
100.99
103.061
105.023
106.869
108.592
110.187
111.648
112.973
114.158
115.202
116.104
116.862
117.479
117.954
118.291
118.491
118.557
118.494
118.305
117.994
117.565
117.024
116.374
115.62
114.766
113.816
112.773
111.641
110.424
109.125
107.748
106.295
104.769
103.173
101.51
99.782
97.99
96.136
94.22
92.243
90.206
88.108
85.949
83.729
81.447
79.101
76.691
74.215
71.672
69.06
66.376
63.62
60.789
57.881
54.896
51.833
48.69
45.469
42.168
38.789
35.331
31.795
28.181
24.491
20.726
16.888
12.979
9.003
4.961
0.859
-3.298
-7.507
-11.761
-16.055
-20.382
-24.736
-29.11
-33.498
-37.891
-42.281
-46.66
-51.018
-55.348
-59.639
-63.881
-68.065
-72.181
-76.222
-80.176
-84.036
-87.793
-91.437
-94.959
-98.351
-101.604
-104.709
-107.658
-110.444
-113.06
-115.5
-117.761
-119.839
-121.731
-123.436
-124.951
-126.277
-127.415
-128.365
-129.131
-129.719
-130.132
-130.378
-130.467
-130.408
-130.216
-129.906
-129.493
-128.993
-128.424
-127.809
-127.172
-126.537
-125.925
-125.357
-124.854
-124.439
-124.135
-123.967
-123.953
-124.109
-124.453
-125.002
-125.778
-126.802
-128.081
-129.613
-131.39
-133.41
-135.674
-138.203
-141.007
-144.084
-147.431
-151.043
-154.914
-159.038
-163.386
-167.898
-172.497
-177.095
-181.626
-186.056
-190.367
-194.533
-198.489
-202.102
-205.233
-207.776
-209.661
-210.875
-211.372
-211.035
-209.876
-208.107
-206.131
-204.417
-203.213
-202.416
-201.882
-201.685
-201.899
-202.497
-202.996
-202.592
-200.885
-198.013
-194.406
-190.289
-185.596
-180.134
-174.321
-169.085
-165.053
-162.609
-161.674
-162.145
-164.212
-167.989
-173.191
-178.863
-183.566
-185.642
-181.642
-167.884
-142.919
-104.238
-52.652
10.34
90.85
192.189
316.296
463.462
621.579
778.67
929.114
1070.51
1203.951
1328.207
1430.904
1488.691
1485.35
1411.565
1269.126
1083.256
878.535
679.887
514.598
388.413
299.466
239.302
187.941
137.006
85.96
37.779
2.29
-17.446
-24.683
-23.451
-19.778
-16.915
-15.087
-14.673
-15.36
-16.431
-17.635
-18.634
-19.002
-18.769
-17.806
-15.453
-11.64
-6.891
-1.638
3.645
8.702
13.827
18.896
23.152
26.243
28.125
28.828
28.701
27.919
26.307
24.039
21.653
19.568
18.204
17.876
18.6
20.434
23.522
27.862
33.387
40.012
47.572
55.929
65.018
74.747
85.029
95.778
106.864
118.167
129.574
140.97
152.275
163.436
174.404
185.154
195.672
205.95
216
225.843
235.487
244.933
254.18
263.224
272.071
280.732
289.213
297.522
305.66
313.623
321.41
329.019
336.442
343.671
350.695
357.499
364.075
370.415
376.513
382.36
387.951
393.274
398.321
403.086
407.558
411.728
415.583
419.114
422.307
425.154
427.644
429.767
431.513
432.874
433.842
434.41
434.572
434.324
433.662
432.585
431.092
429.184
426.864
424.136
421.006
417.482
413.573
409.289
404.645
399.653
394.33
388.694
382.762
376.556
370.095
363.402
356.5
349.412
342.165
334.782
327.289
319.713
312.081
304.417
296.749
289.102
281.499
273.967
266.527
259.202
252.013
244.979
238.121
231.456
224.999
218.766
212.769
207.022
201.532
196.31
191.361
186.69
182.3
178.193
174.37
170.829
167.567
164.582
161.868
159.419
157.228
155.287
153.586
152.114
150.861
149.814
148.961
148.288
147.784
147.434
147.224
147.142
147.171
147.3
147.512
147.794
148.132
148.512
148.92
149.342
149.768
150.184
150.58
150.945
151.27
151.546
151.763
151.913
151.99
151.987
151.898
151.718
151.442
151.067
150.592
150.013
149.331
148.545
147.654
146.66
145.564
144.367
143.072
141.68
140.196
138.623
136.966
135.229
133.419
131.54
129.599
127.602
125.554
123.462
121.331
119.169
116.981
114.773
112.554
110.328
108.103
105.885
103.68
101.493
99.33
97.196
95.095
93.03
91.006
89.025
87.092
85.208
83.378
81.602
79.884
78.224
76.625
75.086
73.608
72.19
70.834
69.537
68.301
67.124
66.006
64.945
63.941
62.991
62.095
61.248
60.45
59.696
58.984
58.31
57.673
57.069
56.496
55.953
55.438
54.949
54.485
54.045
53.627
53.23
52.853
52.494
52.153
51.829
51.52
51.228
50.95
50.687
50.436
50.196
49.965
49.74
49.519
49.297
49.072
48.84
48.596
48.339
48.063
47.765
47.439
47.081
46.683
46.238
45.735
45.16
44.498
43.734
42.852
41.838
40.673
39.342
37.826
36.113
34.188
32.038
29.648
26.998
24.069
20.849
17.326
13.493
9.345
4.876
0.08
-5.036
-10.472
-16.221
-22.283
-28.675
-35.409
-42.485
-49.899
-57.632
-65.651
-73.928
-82.417
-91.047
-99.75
-108.448
-117.06
-125.53
-133.771
-141.707
-149.265
-156.332
-162.827
-168.665
-173.735
-177.993
-181.437
-184.078
-186.025
-187.37
-188.108
-188.465
-188.813
-189.476
-190.902
-193.248
-196.364
-200.496
-205.987
-212.647
-219.903
-226.721
-231.751
-234.584
-235.483
-234.117
-230.2
-224.004
-216.469
-209.808
-206.459
-207.355
-212.253
-220.801
-232.282
-245.438
-257.903
-265.403
-263.257
-247.769
-216.257
-166.966
-98.667
-10.547
97.08
221.889
360.181
505.948
651.375
789.753
915.806
1029.247
1132.522
1224.822
1300.342
1343.343
1336.477
1268.894
1139.085
964.29
768.789
577.699
415.628
289.809
198.375
133.256
77.519
23.942
-28.424
-77.553
-114.444
-135.758
-143.604
-141.006
-134.052
-126.895
-120.29
-114.967
-111.307
-109.524
-110.666
-115.209
-122.209
-130.429
-138.697
-145.582
-150.389
-152.808
-152.056
-147.861
-140.692
-131.224
-120.585
-110.176
-100.675
-92.414
-85.865
-81.125
-78.113
-76.704
-76.389
-76.532
-76.807
-77.038
-77.058
-76.812
-76.183
-75.012
-73.251
-70.873
-67.844
-64.153
-59.782
-54.729
-49.029
-42.741
-35.918
-28.609
-20.833
-12.577
-3.852
5.307
14.845
24.682
34.719
44.836
54.932
64.926
74.756
84.399
93.834
103.049
112.039
120.801
129.315
137.545
145.457
153.021
160.223
167.073
173.59
179.813
185.775
191.507
197.028
202.346
207.461
212.371
217.066
221.53
225.752
229.73
233.466
236.964
240.225
243.241
246.005
248.505
250.73
252.667
254.306
255.639
256.658
257.362
257.752
257.831
257.603
257.072
256.24
255.11
253.685
251.969
249.968
247.684
245.127
242.303
239.223
235.899
232.343
228.568
224.589
220.419
216.075
211.573
206.928
202.157
197.278
192.308
187.263
182.163
177.025
171.867
166.705
161.557
156.44
151.37
146.361
141.429
136.587
131.848
127.223
122.724
118.361
114.142
110.075
106.168
102.426
98.854
95.456
92.234
89.189
86.321
83.629
81.112
78.767
76.59
74.578
72.726
71.029
69.481
68.077
66.808
65.67
64.654
63.753
62.96
62.266
61.663
61.144
60.7
60.323
60.005
59.739
59.516
59.331
59.175
59.043
58.928
58.824
58.726
58.628
58.526
58.416
58.293
58.153
57.994
57.812
57.605
57.371
57.107
56.811
56.482
56.119
55.719
55.283
54.808
54.296
53.745
53.154
52.526
51.858
51.153
50.409
49.629
48.812
47.959
47.072
46.15
45.194
44.206
43.186
42.134
41.052
39.941
38.8
37.632
36.436
35.214
33.968
32.698
31.407
30.095
28.765
27.418
26.057
24.683
23.299
21.908
20.511
19.112
17.714
16.319
14.932
13.556
12.194
10.85
9.528
8.232
6.965
5.731
4.534
3.379
2.268
1.207
0.2
-0.749
-1.636
-2.458
-3.21
-3.89
-4.495
-5.023
-5.472
-5.842
-6.131
-6.341
-6.47
-6.522
-6.499
-6.403
-6.24
-6.014
-5.732
-5.402
-5.036
-4.646
-4.243
-3.843
-3.46
-3.11
-2.809
-2.575
-2.419
-2.357
-2.403
-2.573
-2.885
-3.358
-4.01
-4.859
-5.924
-7.221
-8.765
-10.568
-12.635
-14.971
-17.58
-20.47
-23.656
-27.151
-30.962
-35.091
-39.536
-44.282
-49.3
-54.551
-59.973
-65.501
-71.067
-76.608
-82.069
-87.391
-92.509
-97.348
-101.82
-105.835
-109.307
-112.167
-114.352
-115.835
-116.636
-116.807
-116.452
-115.686
-114.606
-113.324
-111.974
-110.69
-109.625
-108.964
-108.845
-109.457
-111.079
-113.825
-117.682
-122.429
-127.497
-132.312
-136.412
-139.157
-139.809
-137.935
-133.292
-126.205
-117.843
-109.118
-100.609
-92.982
-86.639
-81.603
-77.558
-73.066
-65.294
-51.462
-28.907
5.091
52.786
116.206
196.674
294.316
407.673
533.862
669.29
808.269
942.893
1067.028
1175.811
1266.408
1340.433
1393.355
1415.424
1398.379
1332.733
1221.876
1081.986
928.463
778.151
640.406
515.194
404.75
311.114
235.688
181.277
146.983
128.948
123.189
124.743
128.586
130.768
128.76
121.543
109.45
93.736
75.815
57.319
40.289
26.649
17.415
12.72
12.035
14.379
18.791
24.363
30.014
34.656
37.64
38.714
37.913
35.507
31.725
26.739
20.792
14.171
7.12
-0.144
-7.438
-14.629
-21.545
-27.984
-33.752
-38.654
-42.572
-45.457
-47.302
-48.138
-48.011
-46.979
-45.121
-42.538
-39.327
-35.585
-31.398
-26.846
-22.017
-17.004
-11.901
-6.803
-1.774
3.15
7.946
12.608
17.132
21.519
25.783
29.945
34.019
38.016
41.94
45.791
49.575
53.299
56.973
60.605
64.198
67.753
71.27
74.747
78.181
81.565
84.891
88.148
91.329
94.426
97.434
100.347
103.159
105.861
108.445
110.906
113.233
115.415
117.443
119.304
120.986
122.48
123.772
124.854
125.716
126.348
126.742
126.891
126.788
126.428
125.806
124.918
123.762
122.337
120.642
118.68
116.453
113.965
111.221
108.23
104.999
101.537
97.854
93.96
89.869
85.593
81.145
76.541
71.794
66.921
61.938
56.863
51.712
46.502
41.248
35.969
30.677
25.39
20.12
14.881
9.685
4.544
-0.53
-5.529
-10.443
-15.266
-19.989
-24.609
-29.122
-33.523
-37.812
-41.987
-46.049
-49.997
-53.835
-57.563
-61.186
-64.706
-68.129
-71.458
-74.7
-77.86
-80.944
-83.96
-86.912
-89.809
-92.656
-95.459
-98.224
-100.958
-103.664
-106.349
-109.016
-111.67
-114.315
-116.954
-119.589
-122.222
-124.855
-127.489
-130.123
-132.757
-135.39
-138.021
-140.648
-143.267
-145.878
-148.477
-151.061
-153.626
-156.168
-158.685
-161.172
-163.624
-166.038
-168.41
-170.735
-173.012
-175.235
-177.402
-179.51
-181.557
-183.54
-185.458
-187.309
-189.093
-190.809
-192.456
-194.035
-195.548
-196.994
-198.377
-199.699
-200.962
-202.17
-203.326
-204.434
-205.497
-206.521
-207.51
-208.469
-209.402
-210.315
-211.212
-212.099
-212.981
-213.861
-214.745
-215.636
-216.539
-217.457
-218.392
-219.348
-220.327
-221.33
-222.358
-223.412
-224.492
-225.596
-226.723
-227.871
-229.036
-230.217
-231.408
-232.605
-233.804
-234.999
-236.183
-237.351
-238.495
-239.608
-240.682
-241.707
-242.676
-243.578
-244.405
-245.148
-245.799
-246.348
-246.786
-247.106
-247.299
-247.359
-247.277
-247.048
-246.664
-246.122
-245.417
-244.546
-243.508
-242.302
-240.929
-239.391
-237.69
-235.831
-233.819
-231.66
-229.363
-226.935
-224.387
-221.731
-218.98
-216.148
-213.254
-210.319
-207.365
-204.414
-201.491
-198.621
-195.83
-193.144
-190.587
-188.178
-185.941
-183.898
-182.074
-180.493
-179.181
-178.161
-177.452
-177.075
-177.046
-177.379
-178.085
-179.161
-180.609
-182.433
-184.642
-187.262
-190.308
-193.786
-197.693
-202.019
-206.738
-211.826
-217.234
-222.888
-228.713
-234.634
-240.581
-246.507
-252.348
-258.027
-263.454
-268.501
-273.06
-277.046
-280.385
-283.04
-285
-286.27
-286.906
-287.023
-286.738
-286.208
-285.59
-285.011
-284.643
-284.641
-285.206
-286.664
-289.207
-292.874
-297.53
-302.716
-307.923
-312.784
-316.742
-319.077
-319.381
-317.439
-313.595
-309.103
-305.036
-302.141
-301.188
-302.5
-305.92
-310.935
-315.803
-317.39
-312.576
-298.192
-271.176
-229.491
-171.432
-95.781
-2.851
105.559
226.613
354.986
483.724
606.896
719.361
820.207
911.602
992.026
1054.918
1086.898
1073.367
1008.786
900.39
766.811
627.738
496.104
375.793
263.701
158.995
64.531
-15.893
-78.29
-122.495
-151.605
-168.325
-175.884
-178.11
-178.302
-179.691
-184.336
-192.346
-203.03
-215.72
-229.452
-242.944
-254.795
-263.416
-267.996
-268.773
-266.354
-261.564
-255.267
-248.243
-241.384
-235.615
-231.447
-229.008
-228.221
-228.827
-230.596
-233.367
-236.898
-240.916
-245.202
-249.556
-253.821
-257.857
-261.486
-264.501
-266.701
-267.94
-268.143
-267.285
-265.384
-262.477
-258.618
-253.88
-248.363
-242.16
-235.36
-228.047
-220.295
-212.187
-203.818
-195.282
-186.679
-178.082
-169.537
-161.073
-152.707
-144.445
-136.289
-128.232
-120.252
-112.34
-104.491
-96.703
-88.982
-81.33
-73.744
-66.223
-58.764
-51.372
-44.053
-36.815
-29.667
-22.623
-15.696
-8.903
-2.264
4.203
10.485
16.567
22.435
28.075
33.471
38.611
43.481
48.065
52.35
56.32
59.96
63.257
66.198
68.77
70.964
72.77
74.181
75.19
75.793
75.988
75.776
75.158
74.139
72.723
70.92
68.739
66.193
63.295
60.062
56.511
52.661
48.534
44.153
39.54
34.722
29.723
24.572
19.296
13.922
8.48
2.997
-2.497
-7.974
-13.405
-18.763
-24.021
-29.154
-34.136
-38.946
-43.562
-47.965
-52.138
-56.066
-59.735
-63.135
-66.256
-69.092
-71.637
-73.889
-75.847
-77.513
-78.889
-79.981
-80.796
-81.342
-81.631
-81.674
-81.485
-81.077
-80.466
-79.669
-78.702
-77.585
-76.334
-74.969
-73.509
-71.973
-70.381
-68.75
-67.098
-65.444
-63.804
-62.194
-60.628
-59.121
-57.684
-56.33
-55.068
-53.91
-52.861
-51.931
-51.124
-50.444
-49.896
-49.482
-49.201
-49.054
-49.04
-49.155
-49.397
-49.761
-50.243
-50.836
-51.534
-52.329
-53.215
-54.182
-55.223
-56.328
-57.488
-58.694
-59.937
-61.208
-62.5
-63.803
-65.11
-66.413
-67.706
-68.981
-70.233
-71.456
-72.644
-73.793
-74.898
-75.955
-76.961
-77.913
-78.808
-79.646
-80.425
-81.144
-81.804
-82.403
-82.943
-83.424
-83.848
-84.216
-84.53
-84.792
-85.003
-85.166
-85.283
-85.357
-85.389
-85.382
-85.336
-85.255
-85.138
-84.985
-84.798
-84.576
-84.32
-84.027
-83.699
-83.334
-82.93
-82.486
-82.001
-81.474
-80.901
-80.279
-79.608
-78.882
-78.099
-77.255
-76.345
-75.366
-74.313
-73.182
-71.969
-70.669
-69.279
-67.793
-66.207
-64.518
-62.721
-60.813
-58.792
-56.654
-54.398
-52.024
-49.531
-46.921
-44.193
-41.35
-38.395
-35.332
-32.164
-28.896
-25.534
-22.084
-18.554
-14.953
-11.289
-7.574
-3.82
-0.043
3.739
7.509
11.249
14.937
18.553
22.074
25.48
28.754
31.879
34.836
37.606
40.166
42.497
44.577
46.39
47.917
49.144
50.057
50.647
50.915
50.861
50.484
49.781
48.732
47.317
45.532
43.372
40.844
37.967
34.766
31.279
27.574
23.719
19.785
15.844
11.945
8.144
4.514
1.134
-1.881
-4.409
-6.364
-7.661
-8.236
-8.088
-7.215
-5.662
-3.549
-0.977
1.932
5.01
8.127
11.123
13.787
15.965
17.393
17.696
16.7
14.369
10.923
6.996
3.17
-0.112
-2.163
-2.25
0.103
5.148
12.198
19.646
26.201
30.901
33.145
32.822
29.929
25.016
20.44
19.976
27.55
47.052
81.238
132.039
201.718
291.556
400.718
526.534
664.598
809.341
955.715
1098.22
1229.869
1343.855
1433.672
1494.037
1522.267
1516.785
1478.18
1408.991
1311.681
1191.644
1053.382
901.411
747.021
599.852
470.703
370.356
296.669
245.917
213.141
190.154
177.166
173.635
175.952
182.217
187.512
188.277
184.693
177.18
166.777
155.226
143.794
133.863
127.18
124.414
125.232
128.984
134.713
141.41
148.256
154.403
158.95
161.477
161.959
160.528
157.54
153.311
148.076
142.141
135.805
129.296
122.839
116.64
110.862
105.708
101.388
98.031
95.734
94.539
94.414
95.313
97.168
99.877
103.332
107.429
112.064
117.145
122.582
128.276
134.125
140.026
145.878
151.608
157.162
162.506
167.625
172.519
177.189
181.653
185.934
190.049
194.009
197.825
201.499
205.039
208.456
211.761
214.966
218.077
221.101
224.038
226.893
229.664
232.349
234.945
237.444
239.843
242.14
244.334
246.422
248.404
250.274
252.031
253.669
255.184
256.57
257.817
258.918
259.863
260.645
261.254
261.682
261.919
261.956
261.785
261.399
260.789
259.949
258.873
257.557
255.996
254.186
252.127
249.816
247.254
244.441
241.38
238.072
234.524
230.74
226.728
222.495
218.051
213.407
208.574
203.565
198.393
193.074
187.623
182.056
176.389
170.639
164.823
158.959
153.064
147.154
141.248
135.36
129.507
123.704
117.966
112.306
106.737
101.273
95.923
90.699
85.61
80.665
75.873
71.238
66.768
62.466
58.335
54.377
50.593
46.982
43.542
40.272
37.167
34.222
31.433
28.794
26.297
23.935
21.701
19.586
17.582
15.678
13.867
12.138
10.483
8.891
7.354
5.861
4.405
2.975
1.563
0.16
-1.242
-2.652
-4.077
-5.525
-7.001
-8.512
-10.062
-11.656
-13.297
-14.988
-16.73
-18.525
-20.372
-22.272
-24.222
-26.222
-28.268
-30.357
-32.485
-34.649
-36.843
-39.061
-41.3
-43.552
-45.812
-48.073
-50.329
-52.573
-54.799
-56.999
-59.168
-61.298
-63.383
-65.416
-67.393
-69.307
-71.153
-72.927
-74.626
-76.247
-77.787
-79.244
-80.619
-81.912
-83.123
-84.255
-85.31
-86.292
-87.205
-88.055
-88.846
-89.586
-90.282
-90.941
-91.571
-92.181
-92.78
-93.378
-93.984
-94.608
-95.26
-95.95
-96.688
-97.482
-98.344
-99.281
-100.302
-101.416
-102.629
-103.948
-105.379
-106.926
-108.593
-110.383
-112.297
-114.337
-116.502
-118.791
-121.202
-123.732
-126.377
-129.133
-131.992
-134.949
-137.996
-141.125
-144.325
-147.586
-150.897
-154.247
-157.623
-161.014
-164.407
-167.789
-171.148
-174.472
-177.749
-180.967
-184.115
-187.182
-190.158
-193.036
-195.807
-198.465
-201.006
-203.425
-205.719
-207.888
-209.93
-211.847
-213.64
-215.312
-216.867
-218.309
-219.645
-220.882
-222.031
-223.105
-224.119
-225.092
-226.04
-226.985
-227.948
-228.949
-230.01
-231.149
-232.381
-233.723
-235.193
-236.808
-238.589
-240.552
-242.71
-245.077
-247.665
-250.482
-253.534
-256.823
-260.341
-264.085
-268.054
-272.259
-276.721
-281.454
-286.462
-291.739
-297.273
-303.048
-309.038
-315.197
-321.452
-327.726
-333.939
-340.023
-345.921
-351.566
-356.873
-361.728
-366.003
-369.587
-372.4
-374.4
-375.553
-375.846
-375.284
-373.921
-371.899
-369.403
-366.638
-363.791
-361.046
-358.572
-356.604
-355.51
-355.561
-356.874
-359.366
-362.608
-366.136
-369.651
-372.708
-374.679
-375.13
-373.742
-370.665
-367.088
-364.181
-362.637
-363.204
-366.126
-371.042
-377.647
-384.638
-388.925
-387.288
-376.653
-353.715
-316.417
-263.387
-192.768
-104.171
0.681
119.324
248.017
381.829
516.382
646.774
766.308
868.424
947.611
999.098
1019.613
1009.049
967.731
895.192
795.477
671.4
526.387
372.863
220.938
82.006
-31.031
-118.428
-182.57
-226.775
-258.404
-277.303
-283.54
-280.777
-271.776
-262.384
-257.142
-256.84
-261.523
-270.074
-280.887
-292.577
-303.29
-310.951
-314.456
-313.739
-309.294
-302.044
-292.946
-282.874
-272.875
-264.023
-256.923
-251.741
-248.394
-246.582
-246.041
-246.578
-247.91
-249.716
-251.747
-253.791
-255.679
-257.277
-258.408
-258.87
-258.479
-257.111
-254.706
-251.264
-246.819
-241.422
-235.145
-228.08
-220.339
-212.03
-203.257
-194.119
-184.706
-175.117
-165.457
-155.83
-146.336
-137.049
-128.015
-119.263
-110.807
-102.649
-94.788
-87.21
-79.893
-72.821
-65.984
-59.373
-52.983
-46.806
-40.827
-35.035
-29.417
-23.961
-18.662
-13.516
-8.516
-3.66
1.052
5.62
10.042
14.316
18.446
22.434
26.283
29.995
33.57
37.011
40.317
43.487
46.517
49.404
52.142
54.723
57.143
59.392
61.465
63.353
65.049
66.544
67.833
68.907
69.761
70.388
70.783
70.942
70.861
70.537
69.97
69.158
68.104
66.808
65.275
63.508
61.512
59.294
56.861
54.22
51.382
48.357
45.155
41.789
38.274
34.625
30.858
26.989
23.036
19.017
14.95
10.855
6.749
2.652
-1.419
-5.445
-9.409
-13.293
-17.08
-20.756
-24.304
-27.713
-30.968
-34.059
-36.975
-39.707
-42.248
-44.591
-46.729
-48.658
-50.374
-51.876
-53.162
-54.231
-55.086
-55.728
-56.162
-56.391
-56.423
-56.263
-55.921
-55.403
-54.72
-53.882
-52.898
-51.781
-50.541
-49.191
-47.741
-46.205
-44.594
-42.92
-41.195
-39.429
-37.633
-35.817
-33.991
-32.163
-30.342
-28.535
-26.75
-24.993
-23.27
-21.585
-19.943
-18.348
-16.801
-15.303
-13.857
-12.462
-11.117
-9.82
-8.57
-7.364
-6.199
-5.072
-3.978
-2.913
-1.872
-0.851
0.155
1.152
2.144
3.136
4.133
5.138
6.156
7.189
8.241
9.314
10.41
11.531
12.677
13.85
15.048
16.272
17.518
18.787
20.073
21.376
22.689
24.01
25.333
26.652
27.963
29.26
30.535
31.783
32.998
34.171
35.297
36.37
37.382
38.329
39.204
40.002
40.719
41.35
41.893
42.343
42.698
42.957
43.119
43.184
43.152
43.025
42.805
42.496
42.1
41.624
41.071
40.449
39.764
39.022
38.231
37.4
36.538
35.653
34.757
33.859
32.97
32.102
31.265
30.471
29.731
29.055
28.454
27.937
27.515
27.197
26.991
26.906
26.95
27.129
27.45
27.918
28.535
29.305
30.228
31.307
32.54
33.925
35.46
37.141
38.964
40.923
43.012
45.221
47.543
49.966
52.479
55.065
57.707
60.385
63.081
65.773
68.44
71.059
73.608
76.067
78.419
80.644
82.725
84.643
86.375
87.899
89.197
90.251
91.044
91.561
91.787
91.715
91.342
90.669
89.695
88.41
86.794
84.829
82.514
79.847
76.839
73.514
69.9
66.045
62.024
57.914
53.792
49.734
45.789
42.019
38.496
35.299
32.537
30.304
28.664
27.675
27.369
27.735
28.748
30.322
32.301
34.555
36.927
39.243
41.372
43.132
44.338
44.855
44.468
42.924
40.134
36.123
31.127
25.688
20.314
15.459
11.793
10.039
10.704
14.035
19.607
26.396
33.486
40.215
46.057
50.549
53.545
55.535
58.182
64.302
77.017
99.175
133.168
181.393
245.765
327.091
424.652
535.609
655.659
780.086
903.713
1020.161
1122.776
1205.404
1262.698
1291.559
1290.737
1259.624
1199.227
1113.274
1007.153
887.342
761.086
634.588
513.37
403.435
309.563
233.872
176.557
136.077
109.523
94.168
87.044
83.946
80.935
75.662
67.004
55.09
40.942
25.415
9.505
-5.01
-16.392
-23.756
-26.899
-26.345
-23.071
-17.906
-11.66
-5.376
-0.024
3.796
5.808
6.064
4.802
2.208
-1.536
-6.2
-11.521
-17.252
-23.189
-29.163
-35.005
-40.521
-45.485
-49.67
-52.921
-55.154
-56.332
-56.467
-55.594
-53.757
-51.038
-47.534
-43.337
-38.54
-33.228
-27.481
-21.391
-15.06
-8.592
-2.093
4.359
10.717
16.945
23.028
28.96
34.739
40.377
45.898
51.313
56.63
61.855
66.985
72.023
76.979
81.858
86.667
91.41
96.085
100.69
105.221
109.672
114.033
118.294
122.438
126.455
130.334
134.065
137.638
141.044
144.27
147.306
150.141
152.763
155.16
157.318
159.222
160.86
162.217
163.281
164.04
164.482
164.595
164.371
163.8
162.877
161.594
159.948
157.936
155.557
152.811
149.7
146.228
142.401
138.225
133.711
128.869
123.712
118.255
112.514
106.506
100.251
93.767
87.077
80.202
73.164
65.986
58.694
51.309
43.858
36.364
28.852
21.345
13.865
6.436
-0.922
-8.188
-15.346
-22.376
-29.265
-35.997
-42.561
-48.945
-55.141
-61.141
-66.941
-72.537
-77.927
-83.113
-88.096
-92.881
-97.475
-101.885
-106.12
-110.191
-114.11
-117.889
-121.543
-125.085
-128.531
-131.897
-135.199
-138.453
-141.675
-144.882
-148.09
-151.313
-154.566
-157.863
-161.217
-164.639
-168.14
-171.729
-175.415
-179.203
-183.099
-187.107
-191.229
-195.466
-199.816
-204.277
-208.843
-213.51
-218.268
-223.109
-228.022
-232.996
-238.017
-243.073
-248.148
-253.226
-258.292
-263.328
-268.317
-273.242
-278.085
-282.829
-287.457
-291.951
-296.297
-300.479
-304.481
-308.292
-311.897
-315.287
-318.451
-321.379
-324.065
-326.503
-328.688
-330.618
-332.29
-333.707
-334.869
-335.78
-336.443
-336.866
-337.054
-337.016
-336.762
-336.3
-335.643
-334.801
-333.789
-332.618
-331.303
-329.857
-328.293
-326.627
-324.871
-323.039
-321.144
-319.198
-317.214
-315.202
-313.174
-311.138
-309.102
-307.074
-305.06
-303.064
-301.089
-299.136
-297.208
-295.302
-293.417
-291.552
-289.702
-287.864
-286.033
-284.202
-282.367
-280.519
-278.652
-276.757
-274.825
-272.849
-270.819
-268.727
-266.566
-264.327
-262.003
-259.587
-257.072
-254.453
-251.723
-248.879
-245.917
-242.833
-239.627
-236.299
-232.852
-229.288
-225.614
-221.834
-217.958
-213.993
-209.952
-205.844
-201.681
-197.477
-193.248
-189.006
-184.77
-180.555
-176.382
-172.273
-168.25
-164.334
-160.549
-156.918
-153.465
-150.211
-147.178
-144.383
-141.842
-139.573
-137.591
-135.913
-134.558
-133.539
-132.87
-132.559
-132.614
-133.04
-133.836
-134.993
-136.499
-138.343
-140.518
-143.032
-145.888
-149.08
-152.596
-156.42
-160.517
-164.852
-169.372
-173.995
-178.643
-183.231
-187.681
-191.935
-195.929
-199.588
-202.832
-205.545
-207.622
-208.979
-209.537
-209.244
-208.093
-206.09
-203.303
-199.867
-195.893
-191.525
-186.928
-182.228
-177.603
-173.241
-169.279
-165.959
-163.578
-162.301
-162.183
-163.031
-164.288
-165.393
-165.83
-164.893
-161.826
-156.042
-147.234
-135.919
-123.416
-111.123
-100.199
-91.519
-85.783
-83.358
-83.895
-85.536
-84.778
-77.449
-59.64
-27.937
21.094
90.404
181.954
294.428
422.44
559.681
700.822
844.462
990.633
1134.599
1264.85
1362.597
1410.162
1399.902
1336.344
1235.868
1116.636
990.868
864.643
737.748
610.524
487.613
375.238
280.198
206.288
153.065
117.875
97.057
87.202
84.724
85.954
87.481
86.354
81.256
72.345
60.356
46.31
31.568
17.475
5.418
-3.21
-7.95
-9.142
-7.423
-3.696
1.113
6.209
10.786
14.065
15.684
15.611
13.96
11.017
7.049
2.258
-3.083
-8.684
-14.325
-19.804
-24.925
-29.528
-33.416
-36.367
-38.244
-38.959
-38.466
-36.787
-33.957
-30.03
-25.092
-19.251
-12.611
-5.276
2.657
11.101
19.953
29.104
38.447
47.866
57.278
66.624
75.854
84.943
93.87
102.622
111.201
119.617
127.871
135.962
143.882
151.622
159.174
166.537
173.707
180.682
187.457
194.021
200.366
206.481
212.353
217.967
223.308
228.356
233.098
237.519
241.609
245.357
248.751
251.78
254.434
256.702
258.574
260.038
261.083
261.698
261.872
261.595
260.858
259.653
257.972
255.809
253.159
250.019
246.386
242.259
237.641
232.534
226.945
220.88
214.35
207.366
199.943
192.096
183.845
175.208
166.21
156.873
147.224
137.291
127.103
116.691
106.088
95.326
84.44
73.465
62.436
51.39
40.363
29.39
18.508
7.753
-2.84
-13.237
-23.404
-33.31
-42.922
-52.211
-61.15
-69.714
-77.878
-85.621
-92.925
-99.772
-106.149
-112.044
-117.449
-122.355
-126.761
-130.664
-134.066
-136.972
-139.386
-141.318
-142.778
-143.78
-144.338
-144.467
-144.185
-143.512
-142.466
-141.069
-139.343
-137.31
-134.994
-132.42
-129.611
-126.592
-123.389
-120.026
-116.527
-112.918
-109.221
-105.46
-101.657
-97.833
-94.009
-90.203
-86.435
-82.721
-79.076
-75.515
-72.049
-68.69
-65.447
-62.328
-59.339
-56.485
-53.771
-51.199
-48.771
-46.489
-44.351
-42.359
-40.509
-38.801
-37.231
-35.796
-34.492
-33.315
-32.259
-31.32
-30.491
-29.768
-29.143
-28.61
-28.163
-27.795
-27.499
-27.269
-27.097
-26.977
-26.904
-26.871
-26.873
-26.905
-26.964
-27.043
-27.141
-27.253
-27.376
-27.508
-27.646
-27.787
-27.927
-28.065
-28.197
-28.32
-28.43
-28.523
-28.595
-28.643
-28.661
-28.645
-28.591
-28.493
-28.347
-28.148
-27.892
-27.575
-27.192
-26.739
-26.213
-25.608
-24.922
-24.149
-23.286
-22.329
-21.274
-20.118
-18.858
-17.49
-16.014
-14.425
-12.723
-10.906
-8.976
-6.933
-4.777
-2.514
-0.147
2.317
4.87
7.504
10.211
12.979
15.796
18.648
21.521
24.4
27.27
30.112
32.91
35.642
38.288
40.828
43.24
45.499
47.581
49.457
51.097
52.474
53.561
54.335
54.772
54.851
54.552
53.858
52.755
51.23
49.273
46.868
44.002
40.667
36.866
32.61
27.921
22.822
17.328
11.45
5.191
-1.441
-8.429
-15.759
-23.419
-31.39
-39.644
-48.12
-56.718
-65.347
-73.934
-82.433
-90.845
-99.129
-107.194
-114.914
-122.125
-128.7
-134.598
-139.746
-143.993
-147.302
-149.698
-151.427
-153.053
-154.9
-156.99
-159.289
-161.652
-163.868
-165.878
-167.307
-167.194
-165.09
-161.043
-155.231
-148.397
-141.321
-134.26
-127.796
-123.223
-121.202
-122.002
-125.872
-132.048
-139.635
-148.463
-157.886
-166.367
-172.724
-175.6
-173.252
-164.771
-149.071
-123.967
-87.66
-39.346
22.177
97.796
187.622
292.035
408.319
529.747
650.714
768.104
883.932
1003.671
1124.975
1234.536
1308.645
1324.222
1274.688
1170.12
1034.754
888.86
736.109
575.223
403.413
230.758
83.981
-18.205
-69.74
-81.064
-78.023
-77.717
-85.82
-100.643
-113.707
-122.333
-128.882
-135.638
-145.475
-158.399
-172.306
-185.374
-195.599
-201.302
-201.919
-197.634
-189.143
-177.608
-164.142
-149.714
-135.351
-122.057
-110.505
-101.006
-93.605
-88.109
-84.313
-82.094
-81.311
-81.823
-83.507
-86.197
-89.709
-93.853
-98.414
-103.125
-107.704
-111.874
-115.369
-118.011
-119.717
-120.457
-120.228
-119.03
-116.841
-113.624
-109.384
-104.159
-98.008
-91.015
-83.265
-74.874
-65.998
-56.816
-47.517
-38.233
-29.041
-19.985
-11.098
-2.411
6.036
14.198
22.061
29.611
36.836
43.724
50.265
56.464
62.357
67.995
73.441
78.733
83.893
88.929
93.845
98.643
103.325
107.884
112.304
116.573
120.687
124.645
128.449
132.093
135.566
138.851
141.928
144.783
147.402
149.774
151.885
153.727
155.291
156.574
157.575
158.291
158.718
158.85
158.68
158.205
157.422
156.327
154.918
153.196
151.163
148.822
146.18
143.244
140.023
136.527
132.765
128.751
124.497
120.017
115.326
110.44
105.377
100.154
94.792
89.308
83.724
78.06
72.336
66.574
60.793
55.014
49.255
43.536
37.875
32.291
26.8
21.418
16.16
11.04
6.069
1.258
-3.384
-7.851
-12.136
-16.235
-20.146
-23.868
-27.399
-30.742
-33.897
-36.869
-39.661
-42.277
-44.724
-47.007
-49.135
-51.113
-52.951
-54.657
-56.239
-57.707
-59.07
-60.338
-61.52
-62.625
-63.663
-64.643
-65.573
-66.46
-67.312
-68.134
-68.932
-69.71
-70.473
-71.223
-71.962
-72.692
-73.413
-74.126
-74.829
-75.523
-76.206
-76.876
-77.531
-78.17
-78.789
-79.388
-79.963
-80.512
-81.033
-81.524
-81.981
-82.402
-82.784
-83.125
-83.421
-83.67
-83.87
-84.019
-84.115
-84.156
-84.142
-84.071
-83.945
-83.763
-83.526
-83.234
-82.889
-82.492
-82.046
-81.552
-81.012
-80.428
-79.802
-79.137
-78.435
-77.696
-76.923
-76.117
-75.278
-74.409
-73.509
-72.578
-71.619
-70.63
-69.612
-68.566
-67.493
-66.392
-65.266
-64.114
-62.938
-61.737
-60.513
-59.267
-57.999
-56.712
-55.405
-54.081
-52.743
-51.392
-50.033
-48.668
-47.302
-45.941
-44.589
-43.254
-41.941
-40.658
-39.415
-38.219
-37.082
-36.013
-35.027
-34.139
-33.365
-32.721
-32.224
-31.892
-31.743
-31.793
-32.058
-32.548
-33.277
-34.256
-35.498
-37.016
-38.824
-40.931
-43.346
-46.076
-49.125
-52.498
-56.194
-60.201
-64.51
-69.114
-74.008
-79.206
-84.711
-90.518
-96.616
-102.986
-109.6
-116.43
-123.426
-130.517
-137.626
-144.674
-151.584
-158.303
-164.761
-170.883
-176.576
-181.719
-186.206
-189.956
-192.904
-195.018
-196.281
-196.691
-196.297
-195.205
-193.543
-191.485
-189.202
-186.842
-184.599
-182.634
-181.166
-180.529
-180.906
-182.354
-184.777
-187.761
-190.884
-193.858
-196.18
-197.185
-196.472
-193.702
-188.998
-183.368
-177.669
-172.542
-168.745
-166.622
-166.133
-167.175
-168.753
-168.451
-163.58
-151.204
-128.324
-92.636
-41.995
25.696
111.99
215.379
331.291
454.727
579.967
706.285
837.86
972.845
1104.417
1215.823
1281.685
1289.287
1236.503
1133.941
1003.452
855.193
696.183
531.802
367.205
220.442
105.374
29.698
-8.883
-25.053
-28.327
-28.575
-29.768
-30.799
-36.852
-46.403
-58.015
-71.979
-83.733
-95.032
-108.001
-121.553
-135.926
-148.229
-155.861
-159.121
-158.453
-154.971
-149.943
-143.949
-137.718
-132.218
-127.996
-125.201
-123.71
-123.173
-123.313
-123.992
-125.087
-126.447
-127.945
-129.457
-130.857
-132.045
-132.906
-133.325
-133.183
-132.352
-130.775
-128.456
-125.489
-122.059
-118.293
-114.26
-109.98
-105.413
-100.556
-95.454
-90.147
-84.673
-79.077
-73.386
-67.661
-61.992
-56.415
-50.932
-45.487
-39.959
-34.286
-28.459
-22.502
-16.491
-10.475
-4.472
1.483
7.351
13.106
18.724
24.211
29.604
34.913
40.126
45.213
50.113
54.794
59.251
63.49
67.539
71.417
75.128
78.69
82.123
85.438
88.636
91.708
94.622
97.358
99.905
102.253
104.399
106.335
108.043
109.507
110.711
111.635
112.263
112.578
112.556
112.182
111.444
110.333
108.847
106.982
104.736
102.107
99.096
95.704
91.937
87.798
83.295
78.434
73.227
67.688
61.831
55.675
49.236
42.535
35.594
28.434
21.082
13.562
5.901
-1.874
-9.733
-17.65
-25.593
-33.535
-41.446
-49.298
-57.061
-64.707
-72.21
-79.542
-86.679
-93.597
-100.275
-106.69
-112.827
-118.669
-124.202
-129.413
-134.292
-138.832
-143.026
-146.872
-150.366
-153.51
-156.305
-158.755
-160.868
-162.651
-164.114
-165.268
-166.127
-166.704
-167.016
-167.079
-166.911
-166.531
-165.958
-165.215
-164.321
-163.298
-162.171
-160.959
-159.687
-158.377
-157.049
-155.725
-154.424
-153.166
-151.968
-150.845
-149.814
-148.888
-148.08
-147.399
-146.856
-146.458
-146.211
-146.12
-146.187
-146.414
-146.8
-147.343
-148.04
-148.886
-149.876
-151
-152.252
-153.62
-155.094
-156.661
-158.306
-160.015
-161.771
-163.559
-165.361
-167.159
-168.936
-170.674
-172.357
-173.967
-175.487
-176.902
-178.194
-179.35
-180.352
-181.189
-181.846
-182.313
-182.579
-182.634
-182.472
-182.084
-181.467
-180.617
-179.529
-178.203
-176.639
-174.836
-172.797
-170.528
-168.033
-165.321
-162.4
-159.28
-155.975
-152.497
-148.862
-145.082
-141.175
-137.158
-133.049
-128.865
-124.625
-120.353
-116.07
-111.803
-107.58
-103.427
-99.372
-95.443
-91.667
-88.071
-84.678
-81.505
-78.573
-75.901
-73.51
-71.422
-69.658
-68.236
-67.173
-66.483
-66.176
-66.266
-66.754
-67.632
-68.897
-70.544
-72.584
-75.042
-77.934
-81.263
-85.026
-89.206
-93.779
-98.716
-103.962
-109.432
-115.041
-120.697
-126.326
-131.874
-137.271
-142.436
-147.261
-151.604
-155.351
-158.417
-160.734
-162.276
-163.04
-163.042
-162.363
-161.143
-159.544
-157.768
-156.007
-154.428
-153.239
-152.612
-152.814
-154.243
-157.113
-161.463
-167.073
-173.348
-179.72
-185.796
-190.973
-194.476
-195.782
-194.6
-191.522
-188.104
-185.612
-184.904
-186.48
-190.382
-196.526
-204.327
-211.445
-214.072
-208.276
-190.178
-157.003
-106.866
-37.529
52.275
161.596
287.619
425.783
570.261
715.755
856.608
985.534
1095.605
1180.87
1236.606
1260.752
1253.094
1213.918
1145.446
1052.43
940.622
817.07
689.183
562.671
442.529
333.439
238.355
158.721
94.893
45.006
6.188
-23.616
-46.638
-65.109
-80.243
-93.315
-105.357
-115.529
-122.548
-126.001
-125.443
-121.005
-113.91
-104.753
-94.025
-83.623
-75.291
-69.948
-68.403
-70.402
-74.617
-80.395
-87.191
-93.675
-98.971
-102.643
-104.303
-104.473
-104.219
-104.003
-104.144
-105.079
-106.806
-109.231
-112.237
-115.24
-117.565
-118.869
-118.928
-117.657
-115.163
-111.503
-106.739
-101.056
-94.636
-87.617
-80.109
-72.167
-63.835
-55.203
-46.38
-37.485
-28.613
-19.822
-11.151
-2.621
5.757
13.978
22.05
29.994
37.819
45.523
53.103
60.545
67.84
74.992
82.002
88.878
95.625
102.243
108.727
115.074
121.273
127.314
133.184
138.868
144.354
149.632
154.693
159.532
164.14
168.508
172.626
176.484
180.069
183.37
186.371
189.06
191.423
193.447
195.12
196.431
197.369
197.925
198.091
197.859
197.225
196.184
194.733
192.872
190.602
187.927
184.851
181.38
177.523
173.291
168.695
163.749
158.468
152.869
146.972
140.795
134.362
127.696
120.822
113.766
106.556
99.221
91.791
84.297
76.768
69.237
61.734
54.29
46.935
39.698
32.607
25.691
18.973
12.478
6.228
0.243
-5.459
-10.861
-15.95
-20.715
-25.145
-29.233
-32.973
-36.363
-39.401
-42.089
-44.429
-46.428
-48.092
-49.431
-50.456
-51.181
-51.621
-51.793
-51.714
-51.403
-50.881
-50.169
-49.289
-48.263
-47.115
-45.868
-44.544
-43.166
-41.757
-40.338
-38.93
-37.551
-36.22
-34.954
-33.769
-32.679
-31.698
-30.835
-30.102
-29.506
-29.054
-28.752
-28.601
-28.603
-28.758
-29.064
-29.516
-30.109
-30.836
-31.69
-32.659
-33.735
-34.903
-36.151
-37.465
-38.83
-40.228
-41.643
-43.058
-44.454
-45.816
-47.124
-48.362
-49.515
-50.566
-51.499
-52.301
-52.958
-53.457
-53.787
-53.936
-53.896
-53.659
-53.219
-52.572
-51.716
-50.65
-49.375
-47.893
-46.207
-44.322
-42.246
-39.988
-37.558
-34.969
-32.235
-29.373
-26.403
-23.346
-20.228
-17.074
-13.908
-10.758
-7.656
-4.635
-1.728
1.036
3.63
6.029
8.201
10.119
11.751
13.076
14.073
14.723
15.002
14.887
14.355
13.393
12.008
10.204
7.987
5.35
2.273
-1.255
-5.229
-9.642
-14.481
-19.734
-25.39
-31.41
-37.72
-44.23
-50.839
-57.468
-64.082
-70.659
-77.17
-83.543
-89.633
-95.293
-100.42
-104.945
-108.869
-112.147
-114.657
-116.41
-117.639
-118.776
-120.327
-122.552
-125.315
-128.436
-131.956
-135.926
-140.303
-144.508
-147.614
-149.121
-149.093
-148.03
-146.296
-143.86
-140.596
-137.124
-134.513
-133.578
-134.957
-138.326
-143.13
-149.431
-156.95
-164.593
-171.009
-174.354
-172.082
-162.489
-143.89
-113.742
-70.491
-13.261
59.243
147.302
249.839
365.784
491.451
620.28
747.316
868.588
982.976
1092.351
1193.509
1276.775
1326.567
1326.471
1271.356
1168.986
1036.114
892.093
746.704
601.776
460.811
327.333
210.565
122.001
60.958
23.788
4.444
-6.322
-9.555
-6.59
-1.448
3.921
5.719
1.599
-7.549
-20.665
-36.159
-51.863
-65.978
-76.905
-83.659
-86.296
-85.497
-82.216
-77.462
-72.222
-67.451
-63.987
-62.305
-62.463
-64.312
-67.563
-71.923
-77.155
-82.971
-89.062
-95.2
-101.201
-106.879
-112.079
-116.602
-120.22
-122.792
-124.241
-124.524
-123.662
-121.693
-118.665
-114.667
-109.808
-104.188
-97.91
-91.067
-83.74
-76.032
-68.048
-59.899
-51.7
-43.536
-35.462
-27.526
-19.752
-12.157
-4.75
2.474
9.529
16.423
23.156
29.727
36.128
42.36
48.425
54.327
60.068
65.649
71.069
76.322
81.405
86.311
91.03
95.552
99.863
103.953
107.813
111.436
114.815
117.943
120.812
123.415
125.745
127.795
129.555
131.019
132.175
133.015
133.533
133.719
133.568
133.074
132.23
131.034
129.481
127.57
125.301
122.674
119.691
116.357
112.676
108.657
104.308
99.64
94.665
89.396
83.851
78.045
71.998
65.729
59.261
52.617
45.819
38.894
31.866
24.762
17.609
10.436
3.268
-3.865
-10.937
-17.921
-24.789
-31.517
-38.079
-44.452
-50.614
-56.543
-62.22
-67.628
-72.752
-77.576
-82.091
-86.286
-90.153
-93.688
-96.885
-99.746
-102.269
-104.457
-106.316
-107.852
-109.073
-109.991
-110.617
-110.965
-111.052
-110.893
-110.506
-109.909
-109.123
-108.167
-107.062
-105.829
-104.489
-103.063
-101.573
-100.039
-98.482
-96.922
-95.377
-93.865
-92.402
-91.004
-89.685
-88.458
-87.335
-86.325
-85.437
-84.679
-84.058
-83.576
-83.237
-83.042
-82.991
-83.079
-83.305
-83.661
-84.14
-84.735
-85.436
-86.232
-87.114
-88.068
-89.081
-90.142
-91.236
-92.348
-93.466
-94.574
-95.658
-96.706
-97.703
-98.64
-99.504
-100.285
-100.975
-101.564
-102.048
-102.419
-102.672
-102.804
-102.813
-102.698
-102.461
-102.102
-101.627
-101.045
-100.365
-99.601
-98.768
-97.882
-96.961
-96.024
-95.091
-94.179
-93.306
-92.487
-91.74
-91.083
-90.535
-90.117
-89.849
-89.749
-89.834
-90.121
-90.623
-91.351
-92.307
-93.492
-94.906
-96.557
-98.468
-100.654
-103.125
-105.883
-108.924
-112.229
-115.774
-119.515
-123.38
-127.294
-131.177
-134.955
-138.569
-141.958
-145.049
-147.759
-149.98
-151.612
-152.586
-152.835
-152.323
-151.058
-149.062
-146.425
-143.303
-139.836
-136.195
-132.569
-129.109
-126.022
-123.517
-121.757
-120.99
-121.501
-123.417
-126.738
-131.233
-136.342
-141.498
-146.172
-149.626
-151.058
-149.91
-145.942
-139.64
-132.165
-124.661
-117.993
-112.884
-109.954
-109.33
-110.395
-111.234
-108.582
-98.779
-78.452
-44.602
5.674
74.354
162.231
268.669
390.529
523.012
661.034
797.188
923.079
1033.055
1120.537
1182.714
1219.693
1225.366
1196.638
1130.937
1026.681
895.252
748.659
598.22
456.521
327.038
212.491
116.841
40.05
-16.827
-54.255
-76.05
-85.874
-88.09
-87.664
-88.521
-92.991
-102.047
-115.447
-132.037
-150.475
-169.187
-186.126
-199.315
-207.731
-211.195
-210.14
-205.445
-197.932
-188.403
-177.888
-167.462
-157.812
-149.244
-141.779
-135.21
-129.401
-124.303
-119.847
-115.943
-112.497
-109.44
-106.738
-104.417
-102.521
-101.03
-99.862
-98.901
-98.045
-97.239
-96.478
-95.767
-95.065
-94.311
-93.408
-92.251
-90.791
-88.986
-86.789
-84.138
-80.939
-77.13
-72.712
-67.719
-62.184
-56.135
-49.578
-42.525
-35.046
-27.227
-19.176
-11.018
-2.835
5.304
13.32
21.141
28.686
35.886
42.711
49.155
55.208
60.857
66.091
70.896
75.296
79.32
83.004
86.392
89.511
92.377
95.006
97.413
99.604
101.586
103.352
104.884
106.174
107.214
108
108.529
108.793
108.778
108.475
107.873
106.967
105.754
104.232
102.402
100.269
97.84
95.125
92.138
88.889
85.39
81.652
77.685
73.5
69.111
64.532
59.776
54.859
49.797
44.609
39.315
33.933
28.483
22.984
17.457
11.921
6.395
0.9
-4.547
-9.926
-15.218
-20.408
-25.478
-30.413
-35.2
-39.826
-44.28
-48.553
-52.638
-56.526
-60.214
-63.696
-66.97
-70.034
-72.887
-75.53
-77.966
-80.198
-82.233
-84.076
-85.735
-87.221
-88.543
-89.713
-90.741
-91.641
-92.426
-93.108
-93.702
-94.221
-94.679
-95.091
-95.471
-95.832
-96.187
-96.548
-96.927
-97.336
-97.783
-98.277
-98.828
-99.441
-100.125
-100.884
-101.724
-102.648
-103.659
-104.758
-105.946
-107.219
-108.576
-110.011
-111.518
-113.091
-114.723
-116.406
-118.13
-119.887
-121.666
-123.457
-125.248
-127.028
-128.786
-130.509
-132.184
-133.8
-135.346
-136.813
-138.19
-139.468
-140.64
-141.698
-142.636
-143.449
-144.131
-144.678
-145.086
-145.353
-145.479
-145.465
-145.316
-145.038
-144.642
-144.141
-143.548
-142.878
-142.149
-141.378
-140.581
-139.775
-138.973
-138.192
-137.447
-136.759
-136.148
-135.634
-135.236
-134.969
-134.852
-134.9
-135.127
-135.543
-136.152
-136.959
-137.972
-139.211
-140.708
-142.485
-144.553
-146.914
-149.566
-152.501
-155.707
-159.146
-162.756
-166.467
-170.206
-173.916
-177.549
-181.046
-184.337
-187.316
-189.867
-191.898
-193.348
-194.193
-194.413
-193.991
-192.929
-191.283
-189.196
-186.857
-184.466
-182.192
-180.188
-178.614
-177.684
-177.742
-179.022
-181.583
-185.309
-189.785
-194.617
-199.609
-204.407
-208.428
-211.281
-212.675
-212.714
-212.403
-212.581
-213.524
-215.643
-219.016
-223.195
-227.857
-231.872
-232.643
-227.749
-215.038
-192.003
-157.028
-109.114
-47.005
29.566
119.511
221.448
333.166
449.724
564.945
673.719
771.476
858.487
938.296
1008.695
1062.583
1087.057
1066.75
996.147
879.534
729.598
564.564
400.959
254.461
136.285
51.17
-2.566
-35.726
-59.081
-78.776
-96.229
-106.728
-107.852
-101.997
-93.45
-87.38
-86.167
-89.181
-95.19
-102.792
-110.693
-117.673
-122.236
-123.475
-121.476
-116.833
-110.457
-103.233
-95.831
-88.999
-83.555
-79.957
-78.304
-78.492
-80.203
-83.134
-87.08
-91.762
-96.879
-102.204
-107.49
-112.518
-117.107
-121.04
-124.147
-126.332
-127.524
-127.698
-126.873
-125.078
-122.376
-118.864
-114.625
-109.743
-104.3
-98.366
-92.036
-85.411
-78.595
-71.694
-64.787
-57.926
-51.153
-44.494
-37.961
-31.557
-25.274
-19.09
-12.995
-6.985
-1.058
4.78
10.531
16.201
21.793
27.309
32.752
38.116
43.398
48.591
53.687
58.674
63.539
68.265
72.84
77.255
81.499
85.566
89.448
93.136
96.623
99.904
102.971
105.815
108.429
110.805
112.934
114.81
116.426
117.778
118.861
119.67
120.203
120.458
120.434
120.131
119.551
118.697
117.573
116.184
114.538
112.641
110.505
108.139
105.555
102.766
99.785
96.628
93.309
89.843
86.247
82.539
78.733
74.848
70.901
66.909
62.891
58.862
54.841
50.843
46.884
42.98
39.144
35.391
31.733
28.181
24.746
21.437
18.261
15.226
12.337
9.598
7.011
4.579
2.3
0.175
-1.799
-3.625
-5.307
-6.849
-8.256
-9.536
-10.694
-11.737
-12.674
-13.512
-14.259
-14.922
-15.511
-16.032
-16.493
-16.9
-17.26
-17.58
-17.864
-18.118
-18.346
-18.551
-18.739
-18.91
-19.066
-19.21
-19.34
-19.457
-19.558
-19.643
-19.707
-19.747
-19.759
-19.739
-19.682
-19.582
-19.435
-19.235
-18.975
-18.65
-18.254
-17.781
-17.226
-16.584
-15.85
-15.021
-14.093
-13.065
-11.936
-10.704
-9.37
-7.936
-6.403
-4.776
-3.057
-1.253
0.63
2.585
4.604
6.677
8.791
10.932
13.084
15.228
17.346
19.419
21.425
23.342
25.152
26.833
28.372
29.75
30.948
31.949
32.73
33.273
33.56
33.575
33.304
32.735
31.855
30.658
29.145
27.318
25.175
22.705
19.885
16.699
13.147
9.233
4.973
0.391
-4.488
-9.62
-14.935
-20.359
-25.819
-31.253
-36.617
-41.855
-46.904
-51.669
-56.032
-59.895
-63.185
-65.866
-67.926
-69.359
-70.177
-70.444
-70.271
-69.797
-69.194
-68.593
-68.111
-67.888
-68.043
-68.786
-70.432
-73.136
-76.901
-81.514
-86.475
-91.359
-95.922
-99.736
-102.231
-103.013
-101.839
-99.133
-96.1
-93.651
-92.161
-91.738
-92.134
-92.975
-93.873
-93.361
-88.745
-77.39
-57.146
-26.64
14.649
67.357
132.257
208.897
295.728
390.298
489.438
590.735
690.397
783.549
866.876
936.083
990.188
1029.698
1048.356
1041.648
1004.264
931.561
832.469
716.488
592.737
472.471
357.848
251.29
157.665
78.647
17.043
-25.959
-52.673
-65.584
-67.778
-63.355
-56.159
-49.603
-45.992
-46.036
-49.481
-55.665
-63.688
-72.388
-80.361
-86.103
-88.8
-88.552
-85.874
-81.568
-76.465
-71.204
-66.489
-63.074
-61.335
-61.331
-62.957
-65.885
-69.812
-74.524
-79.736
-85.179
-90.655
-95.926
-100.794
-105.104
-108.663
-111.337
-113.064
-113.777
-113.464
-112.162
-109.911
-106.791
-102.91
-98.354
-93.213
-87.572
-81.505
-75.107
-68.479
-61.718
-54.92
-48.159
-41.482
-34.932
-28.539
-22.313
-16.261
-10.377
-4.644
0.942
6.382
11.676
16.818
21.808
26.65
31.345
35.894
40.297
44.553
48.656
52.604
56.388
60.001
63.434
66.673
69.709
72.537
75.15
77.542
79.708
81.642
83.339
84.795
86.004
86.962
87.663
88.101
88.272
88.171
87.796
87.144
86.214
85.006
83.52
81.758
79.722
77.416
74.845
72.015
68.932
65.605
62.042
58.253
54.25
50.044
45.65
41.081
36.354
31.484
26.489
21.386
16.195
10.935
5.623
0.279
-5.077
-10.427
-15.752
-21.032
-26.251
-31.389
-36.432
-41.361
-46.163
-50.824
-55.332
-59.675
-63.844
-67.83
-71.627
-75.228
-78.63
-81.829
-84.824
-87.613
-90.197
-92.577
-94.758
-96.743
-98.538
-100.15
-101.585
-102.852
-103.959
-104.917
-105.735
-106.421
-106.985
-107.436
-107.785
-108.039
-108.208
-108.3
-108.323
-108.286
-108.196
-108.059
-107.881
-107.666
-107.419
-107.143
-106.839
-106.509
-106.154
-105.772
-105.365
-104.929
-104.466
-103.971
-103.442
-102.877
-102.27
-101.618
-100.917
-100.16
-99.345
-98.465
-97.517
-96.498
-95.406
-94.238
-92.994
-91.673
-90.274
-88.798
-87.248
-85.624
-83.929
-82.167
-80.343
-78.464
-76.537
-74.571
-72.58
-70.58
-68.586
-66.615
-64.687
-62.818
-61.029
-59.337
-57.759
-56.308
-54.999
-53.849
-52.876
-52.098
-51.533
-51.197
-51.102
-51.262
-51.687
-52.386
-53.362
-54.611
-56.131
-57.926
-60.011
-62.41
-65.144
-68.215
-71.621
-75.35
-79.386
-83.704
-88.257
-92.97
-97.764
-102.563
-107.302
-111.929
-116.384
-120.588
-124.434
-127.803
-130.59
-132.725
-134.176
-134.913
-134.93
-134.24
-132.903
-131.067
-128.926
-126.677
-124.507
-122.59
-121.075
-120.181
-120.25
-121.506
-124.033
-127.702
-132.051
-136.634
-141.145
-145.139
-148.005
-149.309
-148.785
-146.724
-144.308
-142.598
-142.292
-144.033
-148.056
-154.17
-161.859
-169.433
-173.821
-171.913
-160.64
-137.068
-99.153
-45.088
26.335
114.404
217.175
332.084
455.088
581.901
707.006
822.4
922.504
1003.847
1065.656
1111.221
1138.513
1141.793
1113.158
1042.209
929.567
783.485
619.262
460.088
321.152
212.506
135.715
80.407
38.75
3.935
-26.767
-48.575
-59.996
-62.28
-58.624
-55.305
-55.663
-60.066
-68.106
-78.382
-89.651
-100.932
-110.818
-117.784
-121.132
-121.034
-118.068
-113.071
-106.888
-100.257
-93.985
-88.912
-85.48
-83.746
-83.608
-84.796
-87.05
-90.193
-93.976
-98.11
-102.383
-106.611
-110.611
-114.24
-117.315
-119.621
-121.023
-121.44
-120.828
-119.207
-116.614
-113.094
-108.73
-103.624
-97.87
-91.564
-84.795
-77.637
-70.186
-62.539
-54.798
-47.071
-39.435
-31.945
-24.64
-17.543
-10.666
-4.016
2.414
8.641
14.674
20.517
26.17
31.627
36.888
41.957
46.838
51.534
56.048
60.376
64.517
68.467
72.221
75.772
79.109
82.222
85.101
87.74
90.134
92.279
94.172
95.806
97.179
98.287
99.126
99.691
99.978
99.98
99.693
99.113
98.237
97.062
95.588
93.813
91.739
89.369
86.705
83.753
80.518
77.007
73.23
69.196
64.917
60.403
55.669
50.73
45.601
40.299
34.841
29.246
23.531
17.718
11.825
5.872
-0.12
-6.132
-12.143
-18.132
-24.081
-29.968
-35.775
-41.483
-47.075
-52.534
-57.846
-62.997
-67.975
-72.769
-77.371
-81.773
-85.969
-89.956
-93.729
-97.289
-100.634
-103.767
-106.69
-109.407
-111.923
-114.246
-116.381
-118.337
-120.122
-121.746
-123.218
-124.547
-125.744
-126.819
-127.782
-128.643
-129.413
-130.099
-130.712
-131.26
-131.749
-132.186
-132.577
-132.927
-133.238
-133.514
-133.756
-133.965
-134.142
-134.285
-134.394
-134.465
-134.496
-134.484
-134.423
-134.309
-134.135
-133.897
-133.586
-133.197
-132.725
-132.162
-131.503
-130.741
-129.871
-128.888
-127.787
-126.563
-125.214
-123.736
-122.129
-120.393
-118.53
-116.543
-114.437
-112.215
-109.884
-107.452
-104.928
-102.321
-99.641
-96.9
-94.109
-91.284
-88.44
-85.596
-82.768
-79.98
-77.25
-74.602
-72.063
-69.66
-67.419
-65.363
-63.516
-61.896
-60.526
-59.427
-58.618
-58.113
-57.925
-58.064
-58.542
-59.375
-60.573
-62.141
-64.072
-66.35
-68.962
-71.905
-75.182
-78.806
-82.778
-87.089
-91.732
-96.709
-102.013
-107.628
-113.506
-119.559
-125.688
-131.813
-137.876
-143.854
-149.717
-155.385
-160.726
-165.584
-169.834
-173.42
-176.324
-178.468
-179.709
-179.994
-179.503
-178.687
-178.059
-177.913
-178.196
-178.75
-179.711
-181.288
-183.398
-185.457
-186.521
-185.892
-183.683
-180.6
-176.932
-172.641
-167.956
-163.659
-161.261
-162.366
-167.511
-176.041
-187.473
-201.566
-217.574
-234.181
-248.92
-258.385
-259.818
-251.519
-231.604
-198.078
-149.417
-84.454
-3.496
91.812
199.822
318.406
444.704
573.799
698.342
813.216
915.064
1002.723
1078.943
1138.607
1171.751
1170.835
1125.069
1035.13
911.052
759.105
592.967
426.171
270.273
142.04
49.577
-9.645
-45.272
-70.778
-94.202
-115.728
-130.763
-136.841
-135.961
-132.665
-132.029
-135.975
-143.635
-153.713
-164.666
-175.009
-183.495
-188.736
-189.976
-187.517
-182.109
-174.687
-166.183
-157.411
-149.188
-142.33
-137.293
-134.116
-132.651
-132.602
-133.674
-135.656
-138.278
-141.232
-144.276
-147.189
-149.758
-151.811
-153.15
-153.558
-152.904
-151.11
-148.14
-144.027
-138.82
-132.583
-125.418
-117.435
-108.742
-99.453
-89.672
-79.498
-69.044
-58.425
-47.757
-37.154
-26.702
-16.46
-6.475
3.228
12.634
21.733
30.529
39.031
47.243
55.164
62.789
70.111
77.126
83.836
90.242
96.347
102.151
107.65
112.842
117.723
122.288
126.532
130.447
134.025
137.262
140.157
142.709
144.92
146.793
148.329
149.532
150.404
150.949
151.169
151.065
150.64
149.896
148.837
147.466
145.788
143.81
141.538
138.979
136.143
133.039
129.677
126.066
122.219
118.147
113.863
109.38
104.713
99.875
94.882
89.751
84.498
79.139
73.692
68.174
62.602
56.993
51.364
45.734
40.119
34.538
29.009
23.549
18.175
12.906
7.757
2.743
-2.121
-6.821
-11.347
-15.687
-19.832
-23.774
-27.504
-31.018
-34.31
-37.376
-40.213
-42.82
-45.196
-47.343
-49.261
-50.954
-52.426
-53.681
-54.724
-55.562
-56.2
-56.646
-56.908
-56.994
-56.914
-56.677
-56.294
-55.777
-55.135
-54.381
-53.527
-52.583
-51.56
-50.469
-49.32
-48.123
-46.889
-45.625
-44.342
-43.048
-41.752
-40.461
-39.184
-37.929
-36.701
-35.507
-34.354
-33.246
-32.19
-31.19
-30.251
-29.377
-28.573
-27.843
-27.19
-26.616
-26.124
-25.715
-25.389
-25.147
-24.989
-24.915
-24.922
-25.012
-25.182
-25.432
-25.761
-26.168
-26.652
-27.21
-27.84
-28.541
-29.31
-30.144
-31.041
-31.997
-33.008
-34.073
-35.186
-36.344
-37.543
-38.777
-40.042
-41.332
-42.642
-43.964
-45.294
-46.624
-47.949
-49.263
-50.561
-51.837
-53.087
-54.305
-55.485
-56.622
-57.71
-58.743
-59.716
-60.621
-61.454
-62.21
-62.884
-63.471
-63.969
-64.375
-64.684
-64.896
-65.008
-65.018
-64.925
-64.73
-64.436
-64.044
-63.559
-62.988
-62.341
-61.63
-60.869
-60.069
-59.242
-58.403
-57.57
-56.759
-55.99
-55.28
-54.646
-54.106
-53.683
-53.397
-53.271
-53.32
-53.556
-53.988
-54.628
-55.49
-56.588
-57.927
-59.509
-61.33
-63.387
-65.689
-68.246
-71.056
-74.11
-77.393
-80.883
-84.568
-88.43
-92.432
-96.528
-100.659
-104.748
-108.75
-112.626
-116.345
-119.907
-123.258
-126.31
-128.995
-131.223
-132.924
-134.123
-134.792
-134.838
-134.343
-133.486
-132.574
-132.22
-132.917
-134.764
-137.799
-142.011
-147.113
-152.781
-158.356
-162.365
-163.297
-160.446
-153.637
-143.193
-130.062
-115.118
-99.44
-85.368
-75.813
-72.696
-76.99
-88.665
-106.094
-127.543
-151.476
-174.688
-192.653
-201.287
-196.683
-175.514
-136.778
-79.861
-3.158
93.259
207.252
336.275
474.804
614.78
752.25
884.038
1006.377
1119.295
1216.206
1284.7
1315.863
1301.061
1239.351
1140.465
1013.827
867.32
710.337
551.469
400.952
273.186
174.855
102.816
51.559
11.52
-22.067
-45.889
-59.137
-62.838
-60.305
-58.349
-60.517
-67.076
-77.475
-90.071
-103.42
-116.367
-127.325
-134.693
-137.786
-136.883
-132.739
-126.361
-118.75
-110.803
-103.441
-97.552
-93.611
-91.674
-91.623
-93.18
-96.054
-100.015
-104.768
-109.973
-115.376
-120.752
-125.87
-130.536
-134.524
-137.589
-139.581
-140.415
-140.041
-138.478
-135.767
-131.962
-127.162
-121.485
-115.042
-107.949
-100.312
-92.229
-83.818
-75.199
-66.492
-57.816
-49.259
-40.878
-32.719
-24.808
-17.156
-9.771
-2.645
4.241
10.895
17.321
23.521
29.493
35.24
40.77
46.09
51.207
56.127
60.852
65.382
69.718
73.859
77.802
81.543
85.074
88.394
91.5
94.394
97.076
99.547
101.806
103.854
105.69
107.314
108.722
109.91
110.876
111.614
112.121
112.393
112.426
112.218
111.764
111.063
110.114
108.914
107.464
105.765
103.817
101.622
99.184
96.506
93.594
90.452
87.088
83.509
79.725
75.746
71.582
67.246
62.751
58.112
53.343
48.462
43.484
38.429
33.315
28.161
22.989
17.817
12.668
7.561
2.517
-2.444
-7.303
-12.04
-16.639
-21.083
-25.356
-29.443
-33.332
-37.009
-40.464
-43.687
-46.671
-49.407
-51.891
-54.117
-56.084
-57.789
-59.234
-60.419
-61.349
-62.026
-62.459
-62.653
-62.617
-62.362
-61.898
-61.237
-60.392
-59.377
-58.207
-56.896
-55.459
-53.913
-52.272
-50.552
-48.769
-46.937
-45.07
-43.183
-41.288
-39.399
-37.529
-35.687
-33.887
-32.137
-30.448
-28.827
-27.283
-25.822
-24.451
-23.172
-21.991
-20.909
-19.927
-19.047
-18.267
-17.585
-16.998
-16.503
-16.094
-15.766
-15.513
-15.328
-15.202
-15.13
-15.103
-15.113
-15.152
-15.212
-15.287
-15.368
-15.449
-15.523
-15.583
-15.623
-15.637
-15.62
-15.566
-15.471
-15.331
-15.142
-14.902
-14.608
-14.259
-13.853
-13.391
-12.874
-12.303
-11.681
-11.012
-10.298
-9.546
-8.759
-7.945
-7.11
-6.259
-5.4
-4.54
-3.685
-2.842
-2.019
-1.22
-0.453
0.278
0.967
1.611
2.203
2.742
3.223
3.643
4.001
4.294
4.519
4.678
4.768
4.791
4.748
4.64
4.472
4.246
3.969
3.644
3.28
2.882
2.458
2.015
1.563
1.11
0.665
0.236
-0.166
-0.533
-0.857
-1.128
-1.341
-1.488
-1.563
-1.562
-1.48
-1.315
-1.063
-0.723
-0.293
0.225
0.833
1.527
2.303
3.157
4.083
5.073
6.116
7.198
8.303
9.415
10.519
11.593
12.618
13.575
14.442
15.204
15.843
16.339
16.671
16.818
16.756
16.466
15.928
15.123
14.036
12.651
10.958
8.957
6.645
4.019
1.07
-2.221
-5.871
-9.883
-14.254
-18.972
-24.012
-29.343
-34.916
-40.656
-46.486
-52.334
-58.128
-63.819
-69.351
-74.654
-79.651
-84.235
-88.307
-91.797
-94.635
-96.783
-98.246
-99.039
-99.234
-98.964
-98.343
-97.504
-96.601
-95.739
-95.053
-94.693
-94.764
-95.458
-97.023
-99.555
-103.042
-107.276
-111.745
-115.996
-119.652
-122.124
-122.786
-121.175
-117.002
-110.685
-103.27
-95.551
-88.068
-81.135
-74.819
-69.198
-63.986
-57.644
-47.669
-31.516
-6.769
28.112
74.224
133.16
205.755
291.281
388.172
493.487
603.308
714.912
823.445
922.297
1007.822
1075.611
1124.554
1156.105
1164.487
1145.057
1093.181
1005.725
892.81
765.035
632.65
506.926
389.669
283.695
193.507
119.224
62.74
24.316
0.553
-11.148
-14.119
-13.336
-12.801
-14.937
-21.152
-31.346
-44.424
-59.471
-75.334
-90.086
-101.934
-109.878
-113.59
-113.542
-110.667
-105.785
-99.734
-93.544
-88.156
-84.155
-81.796
-81.011
-81.561
-83.235
-85.839
-89.14
-92.873
-96.827
-100.833
-104.737
-108.397
-111.642
-114.262
-116.06
-116.91
-116.736
-115.51
-113.262
-110.032
-105.885
-100.916
-95.23
-88.927
-82.11
-74.869
-67.291
-59.479
-51.541
-43.586
-35.727
-28.047
-20.604
-13.441
-6.583
-0.04
6.18
12.084
17.689
23.004
28.036
32.79
37.265
41.466
45.404
49.089
52.535
55.753
58.748
61.527
64.096
66.459
68.619
70.576
72.328
73.876
75.222
76.371
77.326
78.091
78.669
79.062
79.274
79.305
79.156
78.826
78.313
77.615
76.73
75.655
74.388
72.926
71.267
69.408
67.347
65.083
62.615
59.941
57.062
53.979
50.693
47.207
43.524
39.649
35.588
31.349
26.939
22.369
17.65
12.794
7.814
2.724
-2.461
-7.725
-13.051
-18.423
-23.823
-29.232
-34.631
-40.003
-45.327
-50.586
-55.76
-60.832
-65.784
-70.6
-75.264
-79.762
-84.08
-88.205
-92.126
-95.834
-99.319
-102.575
-105.597
-108.38
-110.924
-113.227
-115.29
-117.118
-118.715
-120.086
-121.239
-122.184
-122.931
-123.489
-123.873
-124.094
-124.167
-124.106
-123.926
-123.642
-123.271
-122.827
-122.328
-121.788
-121.223
-120.648
-120.077
-119.524
-119.003
-118.525
-118.101
-117.741
-117.456
-117.252
-117.136
-117.114
-117.189
-117.364
-117.64
-118.017
-118.493
-119.064
-119.728
-120.478
-121.308
-122.212
-123.182
-124.208
-125.28
-126.39
-127.527
-128.678
-129.833
-130.98
-132.108
-133.204
-134.258
-135.259
-136.196
-137.059
-137.84
-138.529
-139.119
-139.604
-139.977
-140.236
-140.376
-140.397
-140.297
-140.079
-139.744
-139.297
-138.742
-138.087
-137.338
-136.504
-135.595
-134.621
-133.593
-132.522
-131.422
-130.305
-129.186
-128.077
-126.994
-125.95
-124.962
-124.041
-123.203
-122.461
-121.827
-121.314
-120.933
-120.694
-120.607
-120.678
-120.915
-121.323
-121.905
-122.662
-123.594
-124.699
-125.971
-127.407
-128.998
-130.735
-132.608
-134.605
-136.712
-138.917
-141.203
-143.555
-145.957
-148.389
-150.833
-153.27
-155.68
-158.042
-160.337
-162.542
-164.638
-166.606
-168.424
-170.075
-171.541
-172.803
-173.847
-174.656
-175.22
-175.525
-175.561
-175.323
-174.803
-174.001
-172.915
-171.548
-169.902
-167.983
-165.8
-163.363
-160.684
-157.773
-154.647
-151.32
-147.811
-144.139
-140.326
-136.394
-132.368
-128.277
-124.15
-120.021
-115.921
-111.881
-107.933
-104.103
-100.422
-96.915
-93.604
-90.516
-87.672
-85.093
-82.801
-80.814
-79.148
-77.817
-76.825
-76.174
-75.863
-75.883
-76.231
-76.912
-77.933
-79.309
-81.052
-83.155
-85.613
-88.422
-91.554
-94.978
-98.636
-102.435
-106.311
-110.203
-114.052
-117.824
-121.421
-124.71
-127.582
-129.907
-131.588
-132.621
-132.906
-132.315
-130.941
-128.849
-126.205
-123.346
-120.315
-117.075
-113.885
-110.931
-108.197
-105.957
-104.159
-102.495
-101.248
-100.393
-99.52
-98.626
-97.732
-96.524
-95.274
-94.411
-93.911
-94.657
-97.665
-103.082
-110.842
-120.547
-130.966
-140.812
-148.425
-150.753
-144.756
-128.11
-99.06
-56.9
-1.555
67.114
148.34
240.076
339.951
445.213
551.97
655.628
752.071
837.94
914.599
986.677
1054.101
1110.179
1139.769
1125.308
1059.625
950.37
816.862
679.29
550.52
433.69
325.41
225.483
137.355
64.687
11.208
-23.044
-41.412
-47.041
-43.63
-35.985
-28.24
-23.126
-22.145
-25.167
-31.103
-39.102
-48.133
-56.434
-62.269
-64.637
-63.27
-58.726
-52.018
-44.033
-35.609
-27.686
-21.146
-16.527
-14.014
-13.516
-14.746
-17.426
-21.311
-26.112
-31.507
-37.237
-43.078
-48.803
-54.224
-59.122
-63.261
-66.485
-68.7
-69.843
-69.916
-68.939
-66.947
-64.015
-60.237
-55.698
-50.486
-44.685
-38.371
-31.642
-24.603
-17.355
-10.003
-2.623
4.733
12.027
19.235
26.347
33.356
40.267
47.093
53.836
60.493
67.056
73.516
79.864
86.098
92.213
98.202
104.059
109.772
115.329
120.715
125.914
130.911
135.686
140.22
144.496
148.503
152.228
155.662
158.797
161.624
164.135
166.325
168.188
169.718
170.907
171.752
172.247
172.39
172.179
171.614
170.695
169.424
167.806
165.846
163.549
160.923
157.977
154.721
151.165
147.323
143.206
138.831
134.212
129.365
124.309
119.062
113.641
108.066
102.357
96.532
90.613
84.617
78.567
72.481
66.379
60.282
54.21
48.181
42.216
36.332
30.548
24.879
19.342
13.95
8.718
3.656
-1.222
-5.909
-10.394
-14.672
-18.734
-22.577
-26.197
-29.591
-32.758
-35.698
-38.413
-40.904
-43.174
-45.228
-47.07
-48.706
-50.142
-51.384
-52.441
-53.321
-54.031
-54.581
-54.981
-55.239
-55.365
-55.37
-55.262
-55.051
-54.746
-54.356
-53.89
-53.357
-52.765
-52.122
-51.436
-50.715
-49.965
-49.195
-48.411
-47.618
-46.823
-46.031
-45.247
-44.477
-43.724
-42.994
-42.289
-41.614
-40.972
-40.365
-39.798
-39.27
-38.784
-38.342
-37.944
-37.593
-37.289
-37.032
-36.824
-36.667
-36.562
-36.509
-36.51
-36.564
-36.672
-36.835
-37.051
-37.322
-37.644
-38.019
-38.443
-38.917
-39.439
-40.006
-40.616
-41.266
-41.953
-42.673
-43.423
-44.198
-44.995
-45.81
-46.64
-47.481
-48.332
-49.188
-50.047
-50.906
-51.764
-52.619
-53.465
-54.298
-55.111
-55.901
-56.665
-57.396
-58.09
-58.741
-59.351
-59.921
-60.455
-60.953
-61.416
-61.844
-62.238
-62.6
-62.934
-63.24
-63.515
-63.759
-63.978
-64.19
-64.413
-64.654
-64.904
-65.146
-65.368
-65.566
-65.732
-65.85
-65.897
-65.862
-65.755
-65.613
-65.475
-65.362
-65.274
-65.191
-65.092
-64.983
-64.894
-64.862
-64.904
-65.038
-65.29
-65.717
-66.391
-67.34
-68.532
-69.874
-71.276
-72.685
-74.08
-75.464
-76.827
-78.134
-79.334
-80.389
-81.279
-81.979
-82.436
-82.554
-82.22
-81.386
-80.092
-78.448
-76.56
-74.494
-72.288
-69.966
-67.576
-65.181
-62.832
-60.556
-58.363
-56.281
-54.37
-52.734
-51.486
-50.686
-50.33
-50.361
-50.73
-51.422
-52.429
-53.746
-55.343
-57.185
-59.261
-61.587
-64.189
-67.089
-70.278
-73.716
-77.358
-81.178
-85.17
-89.332
-93.642
-98.038
-102.463
-106.863
-111.202
-115.457
-119.578
-123.494
-127.127
-130.38
-133.178
-135.469
-137.204
-138.337
-138.862
-138.804
-138.238
-137.312
-136.148
-134.839
-133.492
-132.19
-131.052
-130.228
-129.847
-130.026
-130.926
-132.757
-135.611
-139.4
-143.791
-148.166
-151.875
-154.369
-155.046
-153.119
-148.111
-140.117
-129.77
-118.466
-107.625
-97.908
-89.908
-84.487
-81.819
-81.049
-80.214
-75.683
-63.518
-41.191
-6.228
44.534
113.083
199.923
304.005
419.819
540.796
663.66
782.71
893.809
993.767
1071.765
1120.567
1134.239
1106.386
1042.891
951.498
840.915
723.096
602.234
481.543
365.882
258.946
167.096
94.41
40.735
4.638
-17.169
-28.067
-30.854
-29.612
-28.534
-30.149
-35.671
-45.016
-57.098
-70.966
-85.629
-99.317
-110.205
-117.316
-120.368
-119.839
-116.705
-111.828
-106.045
-100.346
-95.679
-92.633
-91.456
-92.11
-94.357
-97.98
-102.774
-108.487
-114.821
-121.516
-128.362
-135.141
-141.65
-147.647
-152.855
-157.072
-160.168
-162.063
-162.728
-162.164
-160.389
-157.462
-153.476
-148.518
-142.673
-136.028
-128.659
-120.67
-112.176
-103.3
-94.168
-84.881
-75.508
-66.105
-56.713
-47.359
-38.062
-28.829
-19.652
-10.536
-1.493
7.463
16.311
25.038
33.635
42.093
50.402
58.55
66.522
74.303
81.875
89.219
96.316
103.145
109.681
115.908
121.812
127.381
132.606
137.479
141.993
146.142
149.924
153.334
156.37
159.027
161.303
163.197
164.709
165.839
166.589
166.962
166.962
166.593
165.862
164.777
163.345
161.575
159.48
157.071
154.36
151.362
148.092
144.565
140.799
136.81
132.617
128.239
123.694
119
114.178
109.246
104.224
99.13
93.983
88.802
83.606
78.414
73.243
68.113
63.039
58.041
53.133
48.331
43.651
39.106
34.708
30.468
26.398
22.506
18.799
15.285
11.966
8.847
5.93
3.216
0.702
-1.612
-3.73
-5.658
-7.4
-8.964
-10.358
-11.59
-12.671
-13.61
-14.419
-15.109
-15.694
-16.184
-16.595
-16.938
-17.228
-17.479
-17.704
-17.917
-18.131
-18.359
-18.614
-18.907
-19.25
-19.652
-20.123
-20.67
-21.302
-22.023
-22.841
-23.757
-24.776
-25.898
-27.125
-28.455
-29.886
-31.416
-33.039
-34.751
-36.544
-38.411
-40.343
-42.332
-44.366
-46.434
-48.525
-50.626
-52.725
-54.807
-56.859
-58.869
-60.821
-62.704
-64.506
-66.214
-67.819
-69.311
-70.682
-71.924
-73.03
-73.995
-74.813
-75.482
-75.998
-76.36
-76.568
-76.623
-76.527
-76.285
-75.902
-75.386
-74.743
-73.983
-73.117
-72.156
-71.112
-70.001
-68.835
-67.632
-66.407
-65.179
-63.964
-62.78
-61.643
-60.57
-59.574
-58.669
-57.864
-57.169
-56.591
-56.139
-55.818
-55.635
-55.594
-55.702
-55.964
-56.385
-56.967
-57.71
-58.609
-59.657
-60.846
-62.164
-63.597
-65.129
-66.74
-68.411
-70.128
-71.874
-73.629
-75.367
-77.054
-78.661
-80.169
-81.564
-82.833
-83.974
-84.985
-85.875
-86.677
-87.421
-88.133
-88.834
-89.514
-90.162
-90.771
-91.333
-91.847
-92.292
-92.615
-92.756
-92.667
-92.292
-91.577
-90.452
-88.799
-86.518
-83.542
-79.822
-75.375
-70.241
-64.46
-58.094
-51.232
-43.992
-36.552
-29.119
-21.857
-14.928
-8.495
-2.729
2.13
5.873
8.344
9.424
9.064
7.258
3.999
-0.694
-6.742
-14.038
-22.408
-31.627
-41.526
-51.954
-62.748
-73.733
-84.67
-95.305
-105.441
-114.916
-123.604
-131.415
-138.24
-143.97
-148.545
-151.93
-154.142
-155.273
-155.37
-154.449
-152.546
-149.709
-146.078
-141.892
-137.378
-132.738
-128.174
-123.852
-120.011
-117.024
-115.126
-114.392
-114.713
-115.652
-116.814
-118.051
-119.081
-119.454
-118.927
-117.316
-114.864
-112.716
-111.853
-112.671
-115.558
-120.497
-126.93
-134.333
-141.311
-144.969
-142.545
-131.624
-109.764
-75.569
-28.079
33.877
110.03
198.856
298.819
407.228
520.981
636.197
746.234
846.208
933.645
1007.774
1071.413
1120.358
1143.543
1131.911
1076.414
980.085
857.758
718.254
569.297
417.093
263.772
123.882
17.255
-47.871
-69.724
-60.014
-42.207
-28.875
-26.467
-36.757
-50.405
-63.184
-74.206
-81.154
-88.412
-98.315
-109.863
-123.132
-134.979
-142.93
-147.124
-147.703
-145.697
-142.389
-138.438
-134.55
-131.559
-129.904
-129.66
-130.72
-132.8
-135.552
-138.683
-141.927
-144.979
-147.678
-149.999
-151.847
-153.129
-153.714
-153.395
-152.071
-149.74
-146.404
-142.111
-136.959
-131.041
-124.542
-117.721
-110.745
-103.717
-96.667
-89.527
-82.294
-75.022
-67.759
-60.579
-53.522
-46.579
-39.765
-33.109
-26.593
-20.185
-13.802
-7.295
-0.589
6.325
13.415
20.579
27.749
34.898
41.99
48.986
55.859
62.574
69.124
75.537
81.811
87.929
93.852
99.507
104.856
109.895
114.63
119.096
123.315
127.291
131.042
134.587
137.938
141.095
144.045
146.755
149.203
151.376
153.267
154.877
156.199
157.22
157.93
158.315
158.367
158.075
157.428
156.415
155.026
153.258
151.114
148.6
145.722
142.487
138.901
134.973
130.714
126.135
121.247
116.063
110.597
104.865
98.886
92.682
86.274
79.685
72.942
66.071
59.1
52.057
44.972
37.873
30.79
23.752
16.787
9.924
3.189
-3.393
-9.795
-15.996
-21.972
-27.704
-33.173
-38.362
-43.256
-47.842
-52.109
-56.048
-59.651
-62.912
-65.828
-68.397
-70.619
-72.495
-74.032
-75.234
-76.112
-76.674
-76.935
-76.91
-76.614
-76.067
-75.289
-74.299
-73.122
-71.779
-70.293
-68.69
-66.992
-65.223
-63.406
-61.564
-59.72
-57.895
-56.109
-54.382
-52.733
-51.178
-49.734
-48.415
-47.234
-46.204
-45.333
-44.632
-44.105
-43.76
-43.599
-43.624
-43.836
-44.232
-44.81
-45.563
-46.484
-47.566
-48.797
-50.167
-51.663
-53.271
-54.977
-56.767
-58.624
-60.534
-62.482
-64.452
-66.43
-68.4
-70.35
-72.265
-74.133
-75.943
-77.682
-79.341
-80.91
-82.383
-83.751
-85.008
-86.149
-87.172
-88.071
-88.847
-89.497
-90.023
-90.425
-90.706
-90.868
-90.916
-90.854
-90.686
-90.418
-90.055
-89.605
-89.073
-88.465
-87.786
-87.044
-86.242
-85.387
-84.481
-83.53
-82.536
-81.502
-80.43
-79.323
-78.182
-77.008
-75.802
-74.562
-73.29
-71.985
-70.646
-69.271
-67.859
-66.411
-64.925
-63.403
-61.844
-60.249
-58.623
-56.971
-55.3
-53.618
-51.933
-50.256
-48.598
-46.97
-45.385
-43.852
-42.382
-40.987
-39.682
-38.482
-37.406
-36.47
-35.695
-35.099
-34.699
-34.514
-34.556
-34.834
-35.357
-36.133
-37.178
-38.517
-40.173
-42.161
-44.492
-47.168
-50.181
-53.508
-57.109
-60.918
-64.868
-68.89
-72.921
-76.913
-80.811
-84.559
-88.089
-91.311
-94.142
-96.511
-98.354
-99.627
-100.331
-100.502
-100.231
-99.682
-99.015
-98.371
-97.909
-97.76
-98.066
-98.998
-100.706
-103.32
-107.016
-111.998
-118.352
-126.024
-134.696
-143.75
-152.499
-160.244
-166.211
-169.569
-169.707
-166.385
-160.002
-151.629
-142.437
-133.419
-125.39
-118.986
-114.405
-111.218
-107.795
-101.276
-88.309
-65.443
-29.681
21.37
89.714
176.776
282.278
404.021
536.628
671.593
801.185
919.757
1027.004
1125.699
1214.973
1287.515
1325.141
1308.892
1227.748
1082.147
893.357
688.421
493.325
332.905
213.075
131.251
79.884
41.354
7.785
-22.256
-48.359
-63.667
-67.19
-63.405
-56.389
-50.84
-48.687
-49.296
-52.201
-56.515
-61.092
-64.962
-67.415
-68.727
-69.556
-70.075
-70.065
-69.519
-68.735
-68.186
-68.158
-68.207
-67.837
-67.175
-66.792
-67.153
-68.449
-70.581
-73.369
-76.95
-81.428
-86.544
-91.79
-96.627
-100.664
-103.753
-105.894
-107.036
-107.136
-106.226
-104.401
-101.812
-98.598
-94.841
-90.587
-85.883
-80.797
-75.427
-69.882
-64.267
-58.677
-53.179
-47.811
-42.602
-37.564
-32.698
-27.998
-23.444
-19.009
-14.677
-10.438
-6.286
-2.218
1.777
5.721
9.628
13.512
17.382
21.24
25.088
28.925
32.747
36.548
40.316
44.039
47.705
51.308
54.838
58.286
61.641
64.892
68.024
71.027
73.885
76.584
79.107
81.437
83.556
85.45
87.1
88.493
89.611
90.441
90.97
91.186
91.079
90.641
89.864
88.744
87.28
85.47
83.318
80.828
78.008
74.867
71.416
67.671
63.646
59.359
54.829
50.077
45.125
39.996
34.714
29.303
23.789
18.198
12.556
6.891
1.228
-4.406
-9.986
-15.486
-20.884
-26.156
-31.281
-36.241
-41.017
-45.594
-49.959
-54.1
-58.009
-61.679
-65.108
-68.293
-71.237
-73.943
-76.416
-78.666
-80.702
-82.536
-84.182
-85.655
-86.972
-88.148
-89.204
-90.157
-91.026
-91.832
-92.594
-93.331
-94.064
-94.812
-95.592
-96.424
-97.323
-98.307
-99.39
-100.586
-101.906
-103.361
-104.96
-106.71
-108.615
-110.679
-112.902
-115.285
-117.823
-120.512
-123.346
-126.316
-129.412
-132.622
-135.933
-139.331
-142.801
-146.327
-149.891
-153.477
-157.066
-160.64
-164.182
-167.672
-171.092
-174.425
-177.652
-180.756
-183.722
-186.532
-189.172
-191.627
-193.886
-195.935
-197.764
-199.363
-200.725
-201.842
-202.708
-203.319
-203.671
-203.763
-203.594
-203.165
-202.479
-201.538
-200.347
-198.913
-197.241
-195.34
-193.217
-190.882
-188.344
-185.615
-182.704
-179.625
-176.39
-173.011
-169.501
-165.873
-162.142
-158.321
-154.425
-150.467
-146.462
-142.425
-138.37
-134.312
-130.267
-126.249
-122.277
-118.367
-114.54
-110.813
-107.206
-103.739
-100.432
-97.303
-94.37
-91.647
-89.15
-86.891
-84.885
-83.147
-81.69
-80.528
-79.675
-79.142
-78.941
-79.079
-79.561
-80.386
-81.554
-83.059
-84.902
-87.093
-89.639
-92.541
-95.798
-99.4
-103.323
-107.538
-111.998
-116.633
-121.369
-126.13
-130.841
-135.443
-139.868
-144.05
-147.916
-151.366
-154.306
-156.659
-158.355
-159.349
-159.64
-159.246
-158.233
-156.745
-154.928
-152.914
-150.864
-148.904
-147.171
-145.854
-145.126
-145.146
-146.129
-148.295
-151.76
-156.499
-162.218
-168.356
-174.285
-179.347
-182.797
-183.816
-181.767
-176.431
-168.252
-158.3
-147.781
-137.677
-128.792
-121.899
-117.347
-114.739
-112.429
-107.373
-95.938
-74.635
-40.317
10.028
78.753
167.184
274.808
398.66
534.023
675.089
815.324
947.258
1063.132
1155.483
1218.03
1246.763
1239.756
1197.046
1120.713
1015.487
888.1
746.532
599.374
454.591
319.434
200.287
101.857
26.04
-27.668
-61.542
-79.238
-84.725
-82.347
-76.848
-72.417
-71.555
-75.171
-82.933
-93.644
-105.989
-118.428
-129.059
-136.137
-138.74
-136.842
-131.116
-122.629
-112.437
-101.558
-91.018
-81.761
-74.359
-68.977
-65.534
-63.772
-63.4
-64.176
-65.821
-68.01
-70.5
-73.091
-75.543
-77.651
-79.185
-79.883
-79.581
-78.188
-75.639
-71.939
-67.132
-61.273
-54.463
-46.834
-38.494
-29.559
-20.138
-10.329
-0.256
9.95
20.162
30.249
40.115
49.693
58.931
67.798
76.281
84.375
92.091
99.453
106.472
113.158
119.517
125.554
131.277
136.701
141.84
146.711
151.326
155.695
159.827
163.73
167.41
170.871
174.113
177.136
179.943
182.538
184.927
187.117
189.111
190.914
192.529
193.959
195.206
196.267
197.141
197.823
198.308
198.591
198.665
198.524
198.159
197.563
196.728
195.645
194.306
192.704
190.832
188.682
186.249
183.528
180.516
177.211
173.61
169.716
165.531
161.059
156.306
151.28
145.99
140.448
134.667
128.662
122.449
116.045
109.47
102.746
95.894
88.939
81.905
74.819
67.706
60.595
53.512
46.485
39.54
32.706
26.006
19.468
13.116
6.972
1.058
-4.606
-10.001
-15.113
-19.927
-24.432
-28.622
-32.489
-36.032
-39.25
-42.145
-44.723
-46.989
-48.953
-50.626
-52.018
-53.145
-54.022
-54.667
-55.098
-55.336
-55.401
-55.316
-55.103
-54.785
-54.387
-53.931
-53.44
-52.935
-52.44
-51.977
-51.566
-51.227
-50.978
-50.836
-50.816
-50.93
-51.188
-51.596
-52.158
-52.874
-53.744
-54.762
-55.92
-57.209
-58.621
-60.146
-61.772
-63.487
-65.278
-67.131
-69.032
-70.964
-72.909
-74.845
-76.746
-78.588
-80.35
-82.012
-83.554
-84.957
-86.199
-87.267
-88.148
-88.83
-89.297
-89.527
-89.49
-89.17
-88.569
-87.696
-86.574
-85.226
-83.666
-81.925
-80.046
-78.054
-75.968
-73.784
-71.467
-69.006
-66.411
-63.708
-60.948
-58.159
-55.336
-52.475
-49.564
-46.591
-43.558
-40.434
-37.151
-33.698
-30.104
-26.45
-22.888
-19.522
-16.412
-13.606
-11.121
-8.997
-7.312
-6.121
-5.467
-5.407
-5.992
-7.315
-9.526
-12.686
-16.782
-21.738
-27.395
-33.646
-40.445
-47.739
-55.481
-63.61
-72.041
-80.713
-89.59
-98.586
-107.582
-116.409
-124.844
-132.742
-140.025
-146.654
-152.637
-157.927
-162.433
-166.084
-168.842
-170.692
-171.616
-171.592
-170.59
-168.651
-165.915
-162.6
-158.949
-155.179
-151.486
-148.025
-145.002
-142.741
-141.467
-141.278
-142.088
-143.509
-145.162
-146.761
-147.853
-147.822
-146.184
-142.576
-137.173
-131.003
-125.09
-120.364
-117.802
-118.042
-121.373
-127.712
-135.857
-143.122
-146.311
-141.739
-125.64
-95.03
-47.074
20.474
108.448
216.236
340.003
472.804
608.093
738.872
862.102
980.184
1089.712
1185.63
1257.182
1282.957
1252.493
1161.696
1013.44
830.605
634.131
445.537
290.191
175.377
101.272
60.624
33.478
9.834
-12.606
-32.667
-42.273
-40.412
-32.873
-25.048
-22.271
-26.603
-36.861
-51.924
-71.091
-92.522
-113.394
-131.451
-145.402
-154.89
-160.414
-162.356
-160.577
-155.794
-149.672
-143.598
-138.516
-134.833
-132.351
-130.987
-130.994
-132.298
-134.442
-137.003
-139.599
-142.014
-144.269
-146.32
-147.975
-149.083
-149.531
-149.197
-148.043
-146.044
-143.154
-139.378
-134.753
-129.325
-123.182
-116.428
-109.151
-101.439
-93.371
-85.012
-76.443
-67.75
-59.023
-50.357
-41.82
-33.457
-25.302
-17.377
-9.698
-2.275
4.899
11.842
18.564
25.072
31.364
37.433
43.278
48.904
54.312
59.506
64.484
69.243
73.777
78.084
82.158
85.989
89.567
92.879
95.913
98.662
101.119
103.278
105.132
106.675
107.901
108.806
109.385
109.633
109.545
109.113
108.335
107.206
105.725
103.889
101.698
99.154
96.26
93.02
89.441
85.532
81.303
76.769
71.942
66.842
61.486
55.896
50.094
44.104
37.952
31.665
25.27
18.796
12.271
5.724
-0.815
-7.317
-13.755
-20.101
-26.328
-32.41
-38.321
-44.037
-49.537
-54.799
-59.804
-64.535
-68.979
-73.121
-76.953
-80.468
-83.66
-86.528
-89.073
-91.298
-93.211
-94.821
-96.139
-97.18
-97.961
-98.5
-98.818
-98.937
-98.88
-98.672
-98.337
-97.903
-97.394
-96.838
-96.258
-95.682
-95.133
-94.634
-94.208
-93.876
-93.657
-93.57
-93.63
-93.852
-94.247
-94.826
-95.597
-96.564
-97.73
-99.096
-100.658
-102.411
-104.348
-106.458
-108.73
-111.148
-113.695
-116.354
-119.103
-121.922
-124.787
-127.674
-130.558
-133.414
-136.215
-138.934
-141.547
-144.026
-146.348
-148.487
-150.421
-152.128
-153.586
-154.777
-155.682
-156.286
-156.575
-156.536
-156.159
-155.438
-154.367
-152.944
-151.17
-149.049
-146.586
-143.792
-140.678
-137.257
-133.547
-129.566
-125.335
-120.878
-116.219
-111.385
-106.407
-101.317
-96.15
-90.944
-85.737
-80.566
-75.474
-70.498
-65.678
-61.049
-56.645
-52.498
-48.643
-45.113
-41.941
-39.157
-36.788
-34.859
-33.39
-32.401
-31.907
-31.914
-32.421
-33.428
-34.934
-36.948
-39.489
-42.564
-46.171
-50.3
-54.933
-60.049
-65.62
-71.594
-77.896
-84.445
-91.156
-97.955
-104.776
-111.538
-118.146
-124.479
-130.397
-135.775
-140.52
-144.559
-147.831
-150.288
-151.894
-152.661
-152.685
-152.101
-151.07
-149.752
-148.297
-146.859
-145.664
-145.056
-145.305
-146.528
-148.653
-151.3
-154.066
-156.706
-158.855
-159.961
-159.656
-157.705
-154.303
-150.617
-147.801
-146.507
-147.412
-150.726
-156.03
-162.946
-170.141
-174.54
-173.019
-162.612
-140.157
-103.781
-52.215
16.154
101.275
201.416
314.705
438.073
567.546
698.375
823.476
935.489
1030.059
1108.541
1174.966
1230.783
1271.499
1281.146
1242.918
1147.878
996.116
807.298
607.212
421.263
274.018
171.365
111.434
84.037
71.092
65.702
60.998
54.763
49.844
41.773
31.887
21.692
10.816
3.088
-3.852
-12.33
-21.388
-31.658
-40.87
-47.224
-52.04
-55.71
-58.196
-60.057
-61.484
-62.771
-64.668
-67.196
-69.5
-71.351
-73.22
-75.34
-77.945
-81.087
-84.374
-87.731
-91.465
-95.493
-99.409
-102.858
-105.423
-106.838
-107.137
-106.284
-104.181
-100.858
-96.385
-90.86
-84.439
-77.241
-69.321
-60.757
-51.627
-42.017
-32.048
-21.836
-11.49
-1.128
9.166
19.323
29.288
39.021
48.492
57.675
66.559
75.138
83.399
91.327
98.904
106.11
112.939
119.386
125.448
131.123
136.407
141.293
145.777
149.856
153.526
156.784
159.624
162.043
164.04
165.621
166.79
167.559
167.934
167.927
167.55
166.818
165.744
164.343
162.628
160.615
158.316
155.748
152.924
149.859
146.569
143.067
139.367
135.486
131.437
127.234
122.893
118.427
113.851
109.177
104.421
99.596
94.716
89.794
84.845
79.881
74.916
69.963
65.033
60.137
55.285
50.487
45.75
41.082
36.49
31.98
27.558
23.228
18.996
14.865
10.839
6.921
3.114
-0.583
-4.166
-7.637
-10.995
-14.241
-17.375
-20.4
-23.317
-26.129
-28.839
-31.452
-33.971
-36.402
-38.75
-41.022
-43.224
-45.361
-47.44
-49.467
-51.445
-53.381
-55.279
-57.142
-58.974
-60.778
-62.556
-64.311
-66.043
-67.753
-69.441
-71.107
-72.749
-74.367
-75.958
-77.52
-79.051
-80.549
-82.01
-83.432
-84.811
-86.144
-87.426
-88.652
-89.817
-90.915
-91.939
-92.884
-93.743
-94.51
-95.179
-95.745
-96.201
-96.544
-96.769
-96.872
-96.85
-96.701
-96.424
-96.017
-95.482
-94.821
-94.036
-93.132
-92.112
-90.983
-89.751
-88.423
-87.007
-85.509
-83.94
-82.307
-80.621
-78.894
-77.139
-75.37
-73.605
-71.864
-70.167
-68.534
-66.988
-65.549
-64.24
-63.08
-62.083
-61.267
-60.647
-60.242
-60.068
-60.141
-60.475
-61.08
-61.966
-63.14
-64.609
-66.371
-68.421
-70.754
-73.366
-76.267
-79.476
-83.007
-86.866
-91.049
-95.547
-100.346
-105.424
-110.739
-116.224
-121.805
-127.402
-132.948
-138.384
-143.643
-148.647
-153.286
-157.438
-160.986
-163.847
-165.975
-167.33
-167.896
-167.674
-166.714
-165.146
-163.157
-160.952
-158.725
-156.669
-154.955
-153.818
-153.617
-154.611
-156.939
-160.544
-165.04
-170.009
-175.133
-179.93
-183.766
-186.192
-186.883
-186.014
-184.657
-183.844
-184.4
-187.235
-192.771
-200.895
-211.175
-222.039
-230.496
-233.401
-227.317
-208.576
-174.6
-123.477
-53.662
34.768
140.238
260.64
390.819
523.161
651.569
769.628
875.175
972.121
1059.213
1132.677
1183.606
1193.194
1151.87
1057.212
912.734
739.076
555.348
380.14
234.824
124.787
48.981
-0.058
-39.808
-78.326
-117.247
-154.491
-181.258
-195.076
-198.466
-194.07
-187.215
-180.688
-174.311
-168.646
-163.867
-159.546
-156.313
-154.965
-155.047
-156.327
-158.535
-160.618
-162.221
-163.541
-164.125
-163.377
-161.326
-158.01
-153.918
-150.181
-147.278
-145.277
-144.411
-144.801
-146.442
-149.287
-152.906
-156.54
-159.694
-162.065
-163.462
-163.862
-163.214
-161.468
-158.692
-155.031
-150.626
-145.6
-140.027
-133.938
-127.387
-120.456
-113.247
-105.877
-98.453
-91.068
-83.791
-76.662
-69.72
-62.983
-56.454
-50.135
-44.009
-38.054
-32.26
-26.629
-21.155
-15.841
-10.675
-5.64
-0.726
4.078
8.776
13.368
17.854
22.232
26.499
30.646
34.662
38.537
42.262
45.831
49.239
52.479
55.544
58.426
61.119
63.614
65.905
67.982
69.835
71.454
72.831
73.956
74.821
75.419
75.742
75.784
75.541
75.008
74.183
73.066
71.655
69.954
67.966
65.696
63.151
60.339
57.271
53.959
50.415
46.655
42.694
38.549
34.238
29.779
25.191
20.495
15.709
10.854
5.951
1.019
-3.919
-8.844
-13.736
-18.575
-23.341
-28.018
-32.586
-37.031
-41.338
-45.492
-49.483
-53.3
-56.933
-60.376
-63.623
-66.671
-69.517
-72.161
-74.604
-76.849
-78.9
-80.763
-82.443
-83.949
-85.289
-86.472
-87.508
-88.407
-89.179
-89.835
-90.384
-90.838
-91.206
-91.5
-91.728
-91.901
-92.028
-92.119
-92.181
-92.222
-92.25
-92.271
-92.289
-92.311
-92.338
-92.373
-92.417
-92.471
-92.534
-92.606
-92.683
-92.763
-92.842
-92.915
-92.977
-93.023
-93.046
-93.04
-92.998
-92.914
-92.783
-92.597
-92.354
-92.046
-91.671
-91.224
-90.701
-90.1
-89.418
-88.654
-87.807
-86.877
-85.864
-84.77
-83.6
-82.359
-81.057
-79.703
-78.309
-76.886
-75.448
-74.011
-72.589
-71.197
-69.844
-68.546
-67.315
-66.17
-65.128
-64.208
-63.427
-62.802
-62.347
-62.077
-62.007
-62.146
-62.496
-63.062
-63.849
-64.869
-66.151
-67.716
-69.574
-71.732
-74.186
-76.921
-79.924
-83.164
-86.583
-90.125
-93.727
-97.331
-100.904
-104.397
-107.75
-110.894
-113.717
-116.12
-118.036
-119.408
-120.214
-120.461
-120.151
-119.326
-118.095
-116.586
-114.956
-113.374
-111.961
-110.859
-110.222
-110.244
-111.249
-113.446
-116.866
-121.396
-126.626
-132.108
-137.58
-142.598
-146.506
-148.936
-149.65
-148.788
-147.419
-146.457
-146.314
-147.571
-150.367
-154.233
-158.801
-162.87
-163.791
-159.093
-146.424
-123.014
-87.329
-38.61
24.495
102.358
193.887
297.857
410.407
525.002
637.115
743.767
844.957
943.313
1036.296
1114.389
1162.819
1167.841
1124.451
1037.856
920.234
782.383
632.238
478.269
332.025
208.189
117.896
61.928
29.227
5.897
-17.095
-41.087
-60.029
-70.047
-72.491
-71.429
-72.193
-77.048
-85.17
-95.243
-105.833
-115.711
-123.851
-129.032
-130.542
-128.601
-123.921
-117.428
-110.005
-102.409
-95.409
-89.784
-86.005
-84.166
-84.163
-85.734
-88.606
-92.564
-97.337
-102.606
-108.116
-113.638
-118.94
-123.833
-128.103
-131.519
-133.938
-135.27
-135.46
-134.517
-132.468
-129.359
-125.271
-120.305
-114.558
-108.131
-101.121
-93.619
-85.732
-77.57
-69.244
-60.86
-52.5
-44.219
-36.06
-28.051
-20.206
-12.539
-5.047
2.276
9.43
16.408
23.203
29.801
36.195
42.38
48.351
54.102
59.625
64.91
69.944
74.716
79.212
83.419
87.32
90.901
94.148
97.055
99.613
101.818
103.667
105.154
106.278
107.038
107.433
107.462
107.126
106.424
105.358
103.933
102.153
100.024
97.553
94.751
91.627
88.194
84.465
80.454
76.178
71.652
66.896
61.928
56.768
51.437
45.955
40.346
34.632
28.835
22.978
17.085
11.178
5.279
-0.589
-6.404
-12.146
-17.793
-23.326
-28.724
-33.97
-39.046
-43.934
-48.621
-53.092
-57.335
-61.34
-65.098
-68.602
-71.846
-74.828
-77.545
-79.997
-82.187
-84.118
-85.794
-87.223
-88.414
-89.374
-90.116
-90.65
-90.99
-91.149
-91.141
-90.981
-90.682
-90.261
-89.732
-89.109
-88.409
-87.645
-86.831
-85.981
-85.108
-84.224
-83.34
-82.466
-81.613
-80.787
-79.997
-79.249
-78.546
-77.893
-77.292
-76.743
-76.246
-75.799
-75.398
-75.038
-74.714
-74.417
-74.14
-73.873
-73.608
-73.333
-73.039
-72.713
-72.346
-71.925
-71.44
-70.878
-70.231
-69.487
-68.637
-67.673
-66.587
-65.372
-64.023
-62.536
-60.908
-59.137
-57.222
-55.164
-52.966
-50.632
-48.168
-45.581
-42.88
-40.076
-37.186
-34.225
-31.213
-28.172
-25.122
-22.089
-19.097
-16.173
-13.341
-10.625
-8.045
-5.627
-3.397
-1.378
0.401
1.918
3.15
4.075
4.674
4.931
4.833
4.377
3.56
2.378
0.825
-1.12
-3.471
-6.231
-9.4
-12.97
-16.92
-21.222
-25.837
-30.696
-35.734
-40.884
-46.081
-51.28
-56.427
-61.457
-66.295
-70.838
-74.983
-78.657
-81.782
-84.308
-86.228
-87.543
-88.3
-88.606
-88.549
-88.231
-87.786
-87.297
-86.891
-86.717
-86.876
-87.575
-89.088
-91.535
-94.939
-99.095
-103.471
-107.572
-110.968
-113.02
-113.071
-110.653
-105.525
-98.294
-90.286
-82.657
-76.406
-72.253
-70.577
-71.681
-75.243
-79.332
-80.804
-76.294
-62.329
-36.272
3.997
60.836
135.46
227.086
333.258
450.086
572.642
696.078
814.988
922.786
1013.305
1081.163
1122.068
1133.424
1115.352
1070.419
1001.923
913.673
805.781
676.396
529.841
377.1
237.254
130.785
65.999
37.672
30.43
27.553
20.372
8.746
-2.924
-11.965
-18.939
-26.231
-36.884
-51.438
-68.414
-86.193
-102.48
-115.319
-124.106
-128.68
-129.34
-127.008
-122.514
-116.581
-110.193
-104.314
-99.47
-95.908
-93.598
-92.268
-91.775
-92.066
-93.008
-94.427
-96.137
-97.954
-99.75
-101.441
-102.911
-104.021
-104.597
-104.475
-103.594
-101.994
-99.762
-96.981
-93.661
-89.751
-85.238
-80.163
-74.594
-68.612
-62.269
-55.596
-48.651
-41.517
-34.301
-27.094
-19.925
-12.756
-5.532
1.769
9.11
16.402
23.584
30.633
37.533
44.264
50.786
57.053
63.05
68.792
74.302
79.583
84.616
89.353
93.748
97.781
101.46
104.81
107.845
110.57
112.989
115.113
116.966
118.563
119.905
120.975
121.761
122.259
122.473
122.413
122.088
121.496
120.638
119.51
118.114
116.453
114.525
112.33
109.865
107.133
104.141
100.903
97.429
93.731
89.82
85.707
81.405
76.931
72.296
67.513
62.597
57.563
52.427
47.207
41.92
36.583
31.214
25.83
20.451
15.092
9.773
4.51
-0.679
-5.777
-10.768
-15.636
-20.365
-24.943
-29.355
-33.59
-37.635
-41.482
-45.123
-48.549
-51.755
-54.738
-57.493
-60.019
-62.318
-64.391
-66.239
-67.868
-69.281
-70.486
-71.488
-72.297
-72.921
-73.369
-73.653
-73.782
-73.769
-73.626
-73.364
-72.998
-72.538
-71.999
-71.391
-70.727
-70.019
-69.278
-68.516
-67.743
-66.969
-66.202
-65.453
-64.729
-64.036
-63.38
-62.766
-62.198
-61.679
-61.209
-60.79
-60.421
-60.102
-59.832
-59.607
-59.426
-59.284
-59.178
-59.102
-59.051
-59.018
-58.997
-58.98
-58.96
-58.929
-58.879
-58.803
-58.695
-58.547
-58.352
-58.104
-57.797
-57.425
-56.983
-56.466
-55.871
-55.193
-54.433
-53.589
-52.662
-51.654
-50.567
-49.404
-48.172
-46.874
-45.516
-44.104
-42.645
-41.148
-39.621
-38.075
-36.523
-34.979
-33.461
-31.989
-30.581
-29.257
-28.037
-26.943
-25.991
-25.198
-24.576
-24.138
-23.899
-23.875
-24.081
-24.532
-25.237
-26.208
-27.451
-28.975
-30.783
-32.873
-35.233
-37.856
-40.74
-43.897
-47.347
-51.103
-55.165
-59.52
-64.158
-69.057
-74.186
-79.493
-84.891
-90.291
-95.609
-100.771
-105.721
-110.391
-114.69
-118.5
-121.7
-124.185
-125.894
-126.801
-126.872
-126.099
-124.506
-122.162
-119.241
-115.97
-112.562
-109.226
-106.161
-103.526
-101.59
-100.732
-101.178
-103.003
-106.017
-109.701
-113.632
-117.553
-121.038
-123.503
-124.464
-123.611
-121.399
-119.119
-117.808
-118.083
-120.227
-124.137
-129.617
-136.125
-141.687
-143.067
-136.952
-120.201
-90.651
-46.948
12.51
88.619
180.453
286.033
402.123
524.337
649.405
772.198
885.955
986.55
1069.198
1132.344
1176.357
1194.649
1182.048
1133.24
1044.562
926.071
788.391
642.169
500.221
365.936
243.424
138.691
52.993
-11.206
-53.105
-76.022
-83.612
-80.295
-72.08
-64.225
-59.884
-60.867
-67.558
-78.991
-93.825
-110.469
-126.437
-139.23
-147.59
-151.088
-150.062
-145.485
-138.297
-129.421
-120.093
-111.559
-104.54
-99.354
-95.981
-94.127
-93.584
-94.19
-95.706
-97.855
-100.404
-103.15
-105.935
-108.647
-111.121
-113.16
-114.57
-115.157
-114.807
-113.477
-111.168
-107.919
-103.782
-98.82
-93.117
-86.778
-79.906
-72.601
-64.959
-57.065
-49.018
-40.925
-32.893
-25.029
-17.405
-10.069
-3.051
3.636
9.983
15.986
21.653
27.003
32.047
36.793
41.243
45.397
49.26
52.844
56.159
59.216
62.024
64.587
66.91
68.999
70.857
72.485
73.886
75.059
76.006
76.733
77.248
77.559
77.673
77.596
77.338
76.905
76.303
75.539
74.617
73.539
72.309
70.932
69.411
67.747
65.946
64.01
61.941
59.745
57.423
54.981
52.422
49.75
46.971
44.088
41.109
38.038
34.882
31.649
28.344
24.976
21.552
18.079
14.566
11.019
7.447
3.858
0.261
-3.337
-6.927
-10.501
-14.048
-17.562
-21.032
-24.451
-27.812
-31.105
-34.325
-37.465
-40.519
-43.481
-46.348
-49.114
-51.777
-54.334
-56.784
-59.127
-61.363
-63.492
-65.519
-67.444
-69.272
-71.008
-72.656
-74.22
-75.707
-77.122
-78.472
-79.763
-81.001
-82.194
-83.348
-84.47
-85.567
-86.645
-87.71
-88.768
-89.823
-90.881
-91.946
-93.021
-94.111
-95.217
-96.344
-97.491
-98.661
-99.853
-101.068
-102.304
-103.559
-104.83
-106.114
-107.407
-108.705
-110.002
-111.293
-112.572
-113.834
-115.071
-116.279
-117.45
-118.577
-119.651
-120.665
-121.621
-122.514
-123.342
-124.101
-124.783
-125.385
-125.92
-126.38
-126.742
-126.987
-127.095
-127.067
-126.94
-126.722
-126.377
-125.937
-125.487
-125.094
-124.832
-124.716
-124.647
-124.602
-124.696
-124.823
-124.588
-123.912
-122.922
-121.57
-120.294
-118.299
-113.099
-105.241
-97.015
-92.194
-97.875
-113.613
-132.296
-146.829
-147.139
-132.601
-112.735
-94.897
-87.034
-90.519
-98.228
-105.787
-110.207
-110.582
-109.81
-109.201
-108.649
-108.249
-107.557
-106.456
-105.334
-104.303
-103.29
-102.303
-101.355
-100.427
-99.5
-98.536
-97.466
-96.269
-94.976
-93.6
-92.138
-90.597
-88.979
-87.296
-85.569
-83.814
-82.04
-80.263
-78.498
-76.765
-75.081
-73.465
-71.931
-70.494
-69.171
-67.98
-66.942
-66.075
-65.397
-64.923
-64.671
-64.652
-64.882
-65.368
-66.11
-67.111
-68.375
-69.91
-71.742
-73.886
-76.351
-79.136
-82.232
-85.622
-89.285
-93.183
-97.251
-101.421
-105.619
-109.774
-113.838
-117.748
-121.431
-124.804
-127.75
-130.166
-131.976
-133.118
-133.565
-133.312
-132.365
-130.771
-128.639
-126.104
-123.342
-120.537
-117.843
-115.434
-113.465
-112.14
-111.786
-112.591
-114.588
-117.656
-121.378
-125.338
-129.307
-132.861
-135.359
-136.444
-135.844
-133.668
-130.912
-128.332
-126.174
-124.852
-124.43
-124.461
-124.616
-123.768
-119.394
-109.24
-91.338
-63.413
-24.092
27.478
92.427
170.881
261.742
363.782
474.975
590.832
705.744
814.535
912.585
1000.048
1079.852
1150.363
1205.025
1230.582
1211.531
1140.671
1020.603
864.015
689.508
515.312
358.694
231.132
137.402
75.498
34.729
4.949
-19.607
-40.463
-53.633
-57.519
-55.143
-51.033
-50.278
-55.238
-65.165
-78.517
-93.533
-108.449
-121.669
-131.669
-137.554
-139.367
-137.747
-133.625
-127.973
-121.732
-115.839
-111.143
-108.127
-106.871
-107.256
-109.025
-111.917
-115.716
-120.152
-124.927
-129.822
-134.655
-139.237
-143.406
-146.953
-149.638
-151.313
-151.887
-151.311
-149.595
-146.77
-142.873
-137.987
-132.218
-125.662
-118.421
-110.59
-102.25
-93.508
-84.476
-75.272
-66.017
-56.804
-47.695
-38.743
-29.98
-21.428
-13.104
-5.01
2.863
10.514
17.937
25.124
32.061
38.741
45.162
51.321
57.218
62.849
68.208
73.286
78.077
82.571
86.757
90.624
94.158
97.348
100.189
102.676
104.807
106.579
107.991
109.041
109.731
110.062
110.033
109.646
108.902
107.803
106.353
104.559
102.424
99.958
97.167
94.061
90.649
86.943
82.954
78.694
74.178
69.42
64.435
59.239
53.85
48.286
42.565
36.709
30.736
24.667
18.524
12.327
6.099
-0.14
-6.367
-12.561
-18.703
-24.77
-30.743
-36.602
-42.329
-47.905
-53.315
-58.542
-63.573
-68.393
-72.993
-77.361
-81.488
-85.367
-88.993
-92.359
-95.463
-98.302
-100.877
-103.188
-105.238
-107.03
-108.57
-109.863
-110.918
-111.742
-112.345
-112.736
-112.928
-112.93
-112.756
-112.417
-111.927
-111.297
-110.54
-109.668
-108.695
-107.632
-106.489
-105.279
-104.01
-102.694
-101.338
-99.951
-98.541
-97.113
-95.676
-94.232
-92.787
-91.344
-89.907
-88.475
-87.052
-85.637
-84.229
-82.829
-81.434
-80.041
-78.65
-77.257
-75.859
-74.452
-73.034
-71.601
-70.151
-68.679
-67.183
-65.661
-64.112
-62.532
-60.923
-59.282
-57.611
-55.91
-54.181
-52.426
-50.648
-48.851
-47.038
-45.215
-43.388
-41.563
-39.748
-37.95
-36.178
-34.44
-32.745
-31.103
-29.524
-28.017
-26.593
-25.261
-24.031
-22.913
-21.915
-21.047
-20.316
-19.729
-19.295
-19.017
-18.902
-18.953
-19.173
-19.565
-20.13
-20.868
-21.779
-22.86
-24.108
-25.52
-27.091
-28.814
-30.682
-32.686
-34.819
-37.069
-39.426
-41.88
-44.417
-47.027
-49.695
-52.41
-55.158
-57.925
-60.699
-63.466
-66.213
-68.928
-71.599
-74.216
-76.767
-79.243
-81.635
-83.935
-86.137
-88.234
-90.221
-92.095
-93.851
-95.487
-97.003
-98.399
-99.674
-100.832
-101.873
-102.803
-103.624
-104.342
-104.962
-105.489
-105.929
-106.287
-106.571
-106.785
-106.937
-107.032
-107.076
-107.075
-107.033
-106.956
-106.846
-106.708
-106.543
-106.353
-106.138
-105.898
-105.632
-105.337
-105.009
-104.645
-104.238
-103.782
-103.272
-102.697
-102.052
-101.325
-100.508
-99.59
-98.562
-97.413
-96.133
-94.713
-93.142
-91.413
-89.518
-87.448
-85.2
-82.766
-80.143
-77.328
-74.321
-71.12
-67.727
-64.145
-60.379
-56.437
-52.325
-48.056
-43.641
-39.096
-34.442
-29.701
-24.896
-20.052
-15.197
-10.361
-5.575
-0.867
3.733
8.199
12.501
16.609
20.491
24.114
27.449
30.467
33.14
35.443
37.353
38.85
39.925
40.568
40.771
40.521
39.791
38.558
36.81
34.541
31.752
28.462
24.692
20.481
15.898
11.013
5.903
0.644
-4.706
-10.083
-15.411
-20.602
-25.538
-30.099
-34.195
-37.741
-40.677
-42.994
-44.689
-45.811
-46.481
-46.803
-46.915
-46.991
-47.159
-47.585
-48.458
-49.904
-52.173
-55.582
-60.26
-66.22
-73.221
-80.663
-88.02
-94.844
-100.416
-103.987
-105.016
-103.163
-98.999
-93.844
-88.725
-84.513
-81.857
-81.028
-82.234
-85.148
-87.741
-86.757
-78.869
-60.545
-28.978
17.917
82.359
165.903
268.23
386.97
518.618
657.043
794.474
925.713
1045.474
1149.957
1239.742
1308.674
1347.123
1348.656
1303.646
1212.653
1085.39
928.313
754.562
578.324
413.285
277.484
180.864
121.921
89.358
68.526
50.338
33.486
22.956
21.458
26.828
35.016
41.627
45.008
46.022
45.607
44.473
43.449
43.418
44.86
47.072
48.96
49.659
48.804
46.917
44.348
40.891
36.675
32.465
28.915
26.465
25.07
23.87
22.294
20.295
17.747
14.493
10.53
5.87
0.838
-3.828
-7.657
-10.465
-12.126
-12.692
-12.213
-10.677
-8.189
-4.949
-1.091
3.274
8.074
13.298
18.882
24.721
30.709
36.72
42.668
48.504
54.187
59.694
65.017
70.152
75.108
79.91
84.566
89.082
93.458
97.686
101.766
105.707
109.522
113.226
116.832
120.345
123.77
127.11
130.365
133.533
136.61
139.589
142.465
145.236
147.9
150.457
152.907
155.245
157.468
159.572
161.553
163.402
165.112
166.674
168.077
169.313
170.37
171.237
171.903
172.356
172.585
172.578
172.324
171.812
171.031
169.971
168.621
166.974
165.022
162.757
160.174
157.27
154.042
150.488
146.611
142.412
137.895
133.066
127.932
122.501
116.783
110.79
104.534
98.03
91.295
84.346
77.203
69.885
62.415
54.815
47.108
39.318
31.469
23.587
15.695
7.82
-0.014
-7.781
-15.458
-23.018
-30.44
-37.7
-44.776
-51.648
-58.296
-64.702
-70.849
-76.722
-82.307
-87.592
-92.565
-97.216
-101.539
-105.526
-109.173
-112.476
-115.435
-118.051
-120.326
-122.264
-123.87
-125.154
-126.123
-126.789
-127.163
-127.259
-127.091
-126.677
-126.031
-125.173
-124.122
-122.897
-121.519
-120.007
-118.384
-116.67
-114.886
-113.053
-111.191
-109.323
-107.467
-105.644
-103.873
-102.173
-100.562
-99.057
-97.674
-96.429
-95.335
-94.405
-93.65
-93.079
-92.702
-92.525
-92.552
-92.789
-93.236
-93.894
-94.763
-95.839
-97.118
-98.595
-100.262
-102.11
-104.13
-106.31
-108.638
-111.102
-113.687
-116.378
-119.159
-122.015
-124.929
-127.882
-130.858
-133.838
-136.804
-139.739
-142.624
-145.442
-148.177
-150.811
-153.329
-155.715
-157.957
-160.041
-161.955
-163.688
-165.232
-166.577
-167.717
-168.648
-169.365
-169.866
-170.151
-170.221
-170.077
-169.724
-169.167
-168.412
-167.468
-166.344
-165.05
-163.597
-161.999
-160.269
-158.422
-156.472
-154.435
-152.328
-150.166
-147.966
-145.745
-143.52
-141.307
-139.121
-136.98
-134.897
-132.888
-130.965
-129.141
-127.428
-125.835
-124.371
-123.044
-121.86
-120.823
-119.936
-119.201
-118.616
-118.181
-117.89
-117.738
-117.718
-117.82
-118.034
-118.347
-118.747
-119.218
-119.746
-120.313
-120.903
-121.498
-122.078
-122.625
-123.118
-123.538
-123.865
-124.078
-124.158
-124.086
-123.844
-123.414
-122.78
-121.927
-120.841
-119.508
-117.919
-116.064
-113.935
-111.526
-108.835
-105.86
-102.604
-99.071
-95.268
-91.206
-86.896
-82.351
-77.587
-72.622
-67.475
-62.168
-56.724
-51.169
-45.53
-39.837
-34.122
-28.42
-22.768
-17.204
-11.762
-6.482
-1.402
3.438
7.996
12.235
16.123
19.625
22.708
25.341
27.492
29.139
30.267
30.865
30.922
30.431
29.378
27.765
25.608
22.926
19.741
16.067
11.906
7.271
2.188
-3.309
-9.186
-15.409
-21.953
-28.769
-35.778
-42.89
-49.993
-57.002
-63.86
-70.519
-76.946
-83.069
-88.76
-93.9
-98.38
-102.11
-105.064
-107.185
-108.335
-108.537
-107.982
-106.995
-106.169
-105.983
-106.518
-107.793
-109.839
-112.447
-115.349
-117.956
-118.878
-116.747
-111.025
-101.654
-88.995
-73.923
-57.188
-39.813
-24.078
-12.737
-7.563
-9.359
-17.967
-31.933
-49.706
-69.734
-88.861
-102.616
-106.951
-98.325
-73.855
-32.414
26.79
104.89
201.452
314.399
441.026
577.505
717.726
855.061
983.569
1097.252
1195.029
1278.985
1346.494
1392.021
1404.809
1370.99
1285.574
1151.5
979.314
787.744
595.795
422.352
282.549
181.569
115.296
70.923
35.437
2.261
-28.302
-50.01
-59.475
-58.69
-52.384
-46.973
-45.643
-47.953
-52.926
-59.353
-66.038
-72.293
-77.051
-78.923
-77.688
-73.905
-68.305
-61.906
-55.544
-49.779
-45.32
-42.876
-42.687
-44.713
-48.719
-54.255
-60.974
-68.581
-76.717
-85.048
-93.233
-100.944
-107.911
-113.899
-118.732
-122.301
-124.533
-125.394
-124.906
-123.122
-120.131
-116.061
-111.024
-105.134
-98.502
-91.234
-83.455
-75.299
-66.896
-58.37
-49.815
-41.292
-32.85
-24.528
-16.342
-8.302
-0.402
7.374
15.032
22.568
29.976
37.246
44.375
51.361
58.201
64.891
71.424
77.791
83.98
89.981
95.781
101.363
106.714
111.815
116.656
121.227
125.523
129.537
133.266
136.706
139.852
142.702
145.255
147.505
149.45
151.086
152.41
153.421
154.118
154.499
154.565
154.317
153.757
152.888
151.712
150.234
148.459
146.393
144.043
141.416
138.519
135.362
131.952
128.299
124.413
120.304
115.981
111.455
106.737
101.839
96.772
91.547
86.178
80.677
75.056
69.329
63.511
57.615
51.657
45.65
39.61
33.552
27.492
21.444
15.424
9.446
3.524
-2.327
-8.094
-13.763
-19.322
-24.759
-30.061
-35.217
-40.215
-45.045
-49.694
-54.155
-58.417
-62.471
-66.308
-69.923
-73.307
-76.455
-79.361
-82.021
-84.43
-86.586
-88.487
-90.131
-91.52
-92.654
-93.537
-94.172
-94.565
-94.722
-94.652
-94.361
-93.86
-93.158
-92.268
-91.2
-89.969
-88.588
-87.071
-85.435
-83.695
-81.87
-79.975
-78.029
-76.049
-74.054
-72.06
-70.087
-68.151
-66.27
-64.461
-62.741
-61.125
-59.63
-58.27
-57.059
-56.008
-55.128
-54.429
-53.919
-53.604
-53.489
-53.577
-53.87
-54.37
-55.075
-55.982
-57.089
-58.39
-59.878
-61.543
-63.378
-65.37
-67.508
-69.778
-72.166
-74.659
-77.24
-79.895
-82.608
-85.362
-88.14
-90.925
-93.701
-96.45
-99.155
-101.801
-104.371
-106.851
-109.229
-111.49
-113.624
-115.62
-117.471
-119.167
-120.702
-122.072
-123.27
-124.296
-125.146
-125.823
-126.326
-126.658
-126.824
-126.828
-126.676
-126.375
-125.931
-125.352
-124.646
-123.822
-122.888
-121.855
-120.731
-119.527
-118.254
-116.923
-115.544
-114.129
-112.687
-111.228
-109.762
-108.296
-106.838
-105.394
-103.97
-102.57
-101.199
-99.861
-98.557
-97.29
-96.059
-94.865
-93.706
-92.581
-91.488
-90.423
-89.383
-88.365
-87.367
-86.386
-85.419
-84.466
-83.523
-82.589
-81.663
-80.744
-79.829
-78.918
-78.008
-77.1
-76.192
-75.285
-74.383
-73.488
-72.608
-71.752
-70.929
-70.153
-69.434
-68.787
-68.223
-67.755
-67.392
-67.145
-67.023
-67.037
-67.2
-67.522
-68.014
-68.683
-69.535
-70.574
-71.802
-73.221
-74.827
-76.609
-78.565
-80.696
-83.016
-85.544
-88.294
-91.263
-94.447
-97.84
-101.43
-105.193
-109.085
-113.03
-116.952
-120.778
-124.44
-127.882
-131.029
-133.776
-136.009
-137.606
-138.471
-138.566
-137.853
-136.289
-133.855
-130.547
-126.444
-121.75
-116.687
-111.464
-106.307
-101.377
-96.918
-93.343
-90.924
-89.776
-89.811
-90.551
-91.556
-92.665
-93.533
-93.625
-92.673
-90.444
-87.232
-84.409
-83.1
-83.812
-87.129
-93.167
-101.459
-111.597
-122.034
-129.412
-130.501
-122.422
-102.138
-67.653
-17.526
49.893
134.778
235.369
349.212
472.962
601.042
726.906
844.364
947.407
1035.068
1110.011
1171.723
1215.463
1228.378
1194.445
1104.887
962.537
785.168
598.08
425.975
286.086
181.876
107.917
52.854
5.898
-36.301
-72.421
-97.779
-109.612
-110.631
-106.117
-102.17
-102.258
-106.608
-114.316
-124.083
-134.797
-145.31
-154.102
-159.616
-161.124
-158.853
-153.48
-145.907
-137.031
-127.686
-118.764
-111.147
-105.306
-101.295
-98.997
-98.135
-98.439
-99.719
-101.714
-104.122
-106.721
-109.309
-111.688
-113.705
-115.162
-115.838
-115.601
-114.367
-112.099
-108.825
-104.591
-99.454
-93.509
-86.865
-79.624
-71.892
-63.765
-55.33
-46.692
-37.956
-29.229
-20.62
-12.208
-4.043
3.836
11.415
18.69
25.663
32.348
38.773
44.954
50.906
56.639
62.157
67.473
72.601
77.555
82.352
87.002
91.514
95.893
100.147
104.276
108.282
112.164
115.915
119.536
123.025
126.384
129.612
132.71
135.674
138.502
141.192
143.738
146.134
148.373
150.443
152.337
154.044
155.553
156.855
157.937
158.789
159.4
159.758
159.855
159.679
159.222
158.476
157.433
156.087
154.435
152.471
150.194
147.603
144.698
141.481
137.956
134.127
130
125.583
120.885
115.917
110.691
105.22
99.519
93.603
87.49
81.197
74.745
68.151
61.436
54.622
47.728
40.777
33.79
26.789
19.793
12.824
5.901
-0.955
-7.726
-14.395
-20.944
-27.358
-33.621
-39.72
-45.643
-51.377
-56.914
-62.243
-67.358
-72.252
-76.921
-81.362
-85.571
-89.547
-93.291
-96.803
-100.085
-103.14
-105.971
-108.582
-110.98
-113.168
-115.156
-116.948
-118.553
-119.98
-121.235
-122.328
-123.266
-124.06
-124.716
-125.245
-125.655
-125.954
-126.151
-126.253
-126.27
-126.208
-126.073
-125.873
-125.613
-125.298
-124.933
-124.523
-124.07
-123.58
-123.054
-122.497
-121.911
-121.298
-120.662
-120.003
-119.324
-118.627
-117.914
-117.187
-116.447
-115.697
-114.939
-114.174
-113.407
-112.637
-111.869
-111.104
-110.343
-109.59
-108.847
-108.116
-107.401
-106.703
-106.026
-105.375
-104.753
-104.165
-103.614
-103.105
-102.642
-102.229
-101.871
-101.571
-101.334
-101.162
-101.06
-101.03
-101.075
-101.196
-101.396
-101.674
-102.03
-102.464
-102.973
-103.555
-104.209
-104.929
-105.714
-106.558
-107.458
-108.409
-109.405
-110.44
-111.508
-112.602
-113.714
-114.835
-115.955
-117.066
-118.157
-119.219
-120.243
-121.217
-122.131
-122.977
-123.743
-124.421
-125
-125.472
-125.828
-126.061
-126.163
-126.131
-125.958
-125.643
-125.182
-124.575
-123.822
-122.924
-121.881
-120.697
-119.375
-117.919
-116.336
-114.631
-112.815
-110.896
-108.887
-106.805
-104.667
-102.492
-100.299
-98.108
-95.943
-93.824
-91.772
-89.806
-87.943
-86.201
-84.601
-83.164
-81.913
-80.868
-80.048
-79.469
-79.148
-79.098
-79.331
-79.847
-80.648
-81.736
-83.121
-84.824
-86.869
-89.263
-92.011
-95.105
-98.525
-102.244
-106.222
-110.385
-114.66
-118.969
-123.234
-127.401
-131.41
-135.187
-138.652
-141.69
-144.191
-146.076
-147.277
-147.757
-147.536
-146.638
-145.144
-143.208
-140.965
-138.586
-136.277
-134.192
-132.524
-131.479
-131.202
-131.948
-134.046
-137.62
-142.667
-148.924
-155.761
-162.627
-169.077
-174.427
-177.95
-179.114
-177.565
-173.806
-169.083
-164.359
-160.343
-157.424
-155.657
-155.09
-155.372
-154.68
-149.979
-138.073
-115.703
-80.636
-31.34
34.256
117.689
218.814
335.786
463.619
594.943
724.073
846.37
960.255
1067.05
1163.339
1241.384
1288.309
1287.397
1230.078
1118.972
966.302
794.709
626.46
475.493
351.314
253.097
172.798
105.897
46.644
-6.082
-46.931
-74.42
-88.661
-92.538
-93.019
-94.715
-99.314
-107.079
-116.772
-127.301
-138.092
-148.058
-155.81
-160.074
-160.304
-156.851
-150.483
-142.147
-132.758
-123.166
-114.264
-106.908
-101.563
-98.308
-97.051
-97.528
-99.466
-102.658
-106.811
-111.585
-116.713
-121.943
-127.02
-131.737
-135.848
-139.091
-141.299
-142.366
-142.228
-140.893
-138.388
-134.758
-130.091
-124.495
-118.073
-110.935
-103.181
-94.906
-86.224
-77.251
-68.103
-58.897
-49.713
-40.607
-31.619
-22.77
-14.067
-5.513
2.902
11.199
19.387
27.469
35.446
43.314
51.071
58.723
66.27
73.713
81.05
88.273
95.374
102.342
109.163
115.821
122.297
128.573
134.63
140.455
146.033
151.353
156.401
161.163
165.626
169.778
173.604
177.09
180.22
182.979
185.354
187.331
188.9
190.048
190.768
191.051
190.891
190.284
189.228
187.721
185.764
183.36
180.514
177.231
173.523
169.398
164.869
159.952
154.663
149.02
143.043
136.752
130.171
123.322
116.231
108.925
101.429
93.771
85.98
78.086
70.119
62.109
54.085
46.077
38.115
30.226
22.438
14.776
7.266
-0.069
-7.207
-14.129
-20.814
-27.248
-33.414
-39.299
-44.893
-50.186
-55.172
-59.844
-64.199
-68.236
-71.954
-75.356
-78.443
-81.221
-83.696
-85.874
-87.765
-89.377
-90.723
-91.814
-92.663
-93.283
-93.69
-93.898
-93.922
-93.777
-93.48
-93.046
-92.489
-91.826
-91.071
-90.239
-89.344
-88.4
-87.419
-86.414
-85.397
-84.378
-83.368
-82.375
-81.409
-80.477
-79.585
-78.741
-77.951
-77.219
-76.55
-75.948
-75.416
-74.956
-74.571
-74.261
-74.027
-73.869
-73.786
-73.776
-73.839
-73.972
-74.172
-74.436
-74.761
-75.144
-75.58
-76.066
-76.597
-77.169
-77.778
-78.42
-79.09
-79.785
-80.5
-81.232
-81.977
-82.731
-83.492
-84.254
-85.016
-85.773
-86.521
-87.258
-87.98
-88.684
-89.365
-90.022
-90.651
-91.249
-91.814
-92.343
-92.834
-93.286
-93.696
-94.062
-94.384
-94.659
-94.887
-95.065
-95.194
-95.271
-95.295
-95.267
-95.183
-95.044
-94.847
-94.59
-94.272
-93.892
-93.446
-92.932
-92.348
-91.693
-90.964
-90.161
-89.281
-88.325
-87.291
-86.178
-84.987
-83.716
-82.365
-80.935
-79.426
-77.838
-76.173
-74.434
-72.622
-70.739
-68.79
-66.777
-64.704
-62.575
-60.396
-58.172
-55.91
-53.619
-51.308
-48.988
-46.671
-44.372
-42.107
-39.892
-37.743
-35.678
-33.72
-31.893
-30.218
-28.719
-27.41
-26.313
-25.445
-24.826
-24.475
-24.403
-24.621
-25.142
-25.978
-27.147
-28.664
-30.529
-32.733
-35.262
-38.101
-41.247
-44.709
-48.49
-52.58
-56.97
-61.647
-66.602
-71.827
-77.287
-82.911
-88.61
-94.299
-99.921
-105.461
-110.919
-116.277
-121.464
-126.36
-130.846
-134.815
-138.23
-141.04
-143.123
-144.471
-145.21
-145.615
-146.215
-147.49
-149.532
-152.344
-155.912
-159.822
-163.749
-167.362
-169.609
-169.629
-167.242
-162.222
-154.864
-146.356
-137.316
-128.222
-120.572
-115.343
-113.011
-114.664
-120.205
-128.295
-138.429
-149.741
-160.359
-169.22
-174.942
-174.697
-166.625
-149.44
-120.755
-79.173
-24.044
46.503
133.655
236.675
354.488
483.26
615.543
745.18
867.745
982.505
1091.563
1193.641
1280.536
1333.415
1333.029
1267.183
1134.885
956.711
759.067
567.795
408.298
287.392
203.759
151.154
112.686
80.031
50.556
23.609
5.735
-1.831
-3.327
-3.133
-6.698
-16.192
-30.305
-47.305
-65.339
-82.687
-97.799
-109.159
-115.946
-118.193
-116.544
-112.025
-105.59
-98.173
-90.839
-84.536
-79.835
-76.943
-75.78
-76.12
-77.778
-80.577
-84.283
-88.626
-93.356
-98.279
-103.239
-108.068
-112.569
-116.509
-119.651
-121.838
-122.99
-123.064
-122.07
-120.034
-116.993
-113.025
-108.23
-102.703
-96.541
-89.831
-82.654
-75.105
-67.29
-59.315
-51.292
-43.299
-35.382
-27.575
-19.892
-12.339
-4.915
2.393
9.613
16.761
23.848
30.882
37.866
44.805
51.712
58.598
65.471
72.338
79.2
86.056
92.901
99.731
106.534
113.299
120.009
126.649
133.208
139.673
146.03
152.268
158.37
164.321
170.104
175.703
181.097
186.265
191.186
195.837
200.196
204.242
207.952
211.307
214.284
216.865
219.033
220.769
222.06
222.891
223.252
223.134
222.528
221.433
219.845
217.766
215.199
212.151
208.631
204.65
200.221
195.361
190.087
184.42
178.382
171.997
165.292
158.293
151.031
143.536
135.84
127.977
119.98
111.882
103.718
95.523
87.33
79.173
71.083
63.093
55.234
47.533
40.02
32.718
25.652
18.844
12.312
6.074
0.145
-5.462
-10.738
-15.674
-20.263
-24.502
-28.389
-31.924
-35.109
-37.949
-40.449
-42.617
-44.461
-45.994
-47.226
-48.171
-48.842
-49.256
-49.427
-49.373
-49.11
-48.656
-48.029
-47.246
-46.324
-45.282
-44.134
-42.898
-41.587
-40.218
-38.804
-37.357
-35.89
-34.413
-32.938
-31.473
-30.028
-28.609
-27.224
-25.878
-24.577
-23.324
-22.123
-20.976
-19.887
-18.855
-17.883
-16.971
-16.119
-15.325
-14.588
-13.908
-13.282
-12.708
-12.184
-11.707
-11.276
-10.889
-10.545
-10.241
-9.978
-9.754
-9.569
-9.422
-9.314
-9.243
-9.21
-9.216
-9.26
-9.343
-9.465
-9.626
-9.827
-10.067
-10.345
-10.661
-11.013
-11.4
-11.819
-12.27
-12.75
-13.256
-13.788
-14.341
-14.915
-15.505
-16.109
-16.722
-17.341
-17.96
-18.573
-19.174
-19.757
-20.315
-20.841
-21.328
-21.769
-22.157
-22.484
-22.744
-22.929
-23.032
-23.049
-22.972
-22.797
-22.522
-22.145
-21.663
-21.079
-20.391
-19.604
-18.721
-17.745
-16.681
-15.534
-14.311
-13.019
-11.665
-10.26
-8.816
-7.345
-5.866
-4.397
-2.955
-1.562
-0.238
0.995
2.116
3.108
3.955
4.638
5.141
5.445
5.529
5.379
4.98
4.32
3.39
2.183
0.692
-1.079
-3.122
-5.43
-7.999
-10.838
-13.963
-17.382
-21.093
-25.084
-29.341
-33.843
-38.563
-43.454
-48.441
-53.447
-58.39
-63.204
-67.831
-72.199
-76.221
-79.781
-82.749
-85.016
-86.508
-87.184
-87.003
-85.944
-84.005
-81.228
-77.748
-73.749
-69.423
-64.954
-60.523
-56.294
-52.511
-49.553
-47.677
-46.978
-47.352
-48.357
-49.572
-50.775
-51.574
-51.366
-49.761
-46.474
-41.719
-36.735
-32.619
-29.915
-29.268
-30.891
-34.484
-39.863
-45.79
-49.193
-46.975
-36.249
-13.881
22.144
73.402
142.044
228.643
331.524
448.189
574.869
706.68
839.149
966.791
1082.253
1178.885
1251.175
1294.523
1306.369
1285.528
1231.56
1146.585
1035.886
906.04
764.611
619.435
477.476
345.583
230.088
135.214
62.385
10.864
-21.862
-39.242
-45.025
-43.731
-40.058
-37.977
-39.872
-46.463
-57.374
-71.6
-87.819
-104.333
-119.223
-130.728
-137.998
-141.141
-140.734
-137.692
-132.963
-127.429
-122.073
-117.758
-114.874
-113.467
-113.384
-114.327
-116.083
-118.5
-121.365
-124.484
-127.697
-130.85
-133.841
-136.549
-138.822
-140.527
-141.557
-141.907
-141.671
-140.936
-139.792
-138.325
-136.565
-134.541
-132.267
-129.685
-126.758
-123.484
-119.856
-115.919
-111.736
-107.33
-102.723
-97.898
-92.771
-87.286
-81.4
-75.062
-68.277
-61.066
-53.473
-45.608
-37.58
-29.458
-21.31
-13.171
-5.057
2.994
10.95
18.784
26.437
33.863
41.021
47.857
54.343
60.468
66.228
71.652
76.77
81.591
86.119
90.347
94.257
97.838
101.071
103.927
106.384
108.427
110.04
111.216
111.946
112.215
112.009
111.312
110.107
108.387
106.145
103.381
100.097
96.301
92.004
87.226
81.986
76.305
70.204
63.705
56.832
49.61
42.069
34.236
26.14
17.814
9.29
0.605
-8.208
-17.112
-26.073
-35.054
-44.018
-52.931
-61.757
-70.462
-79.013
-87.378
-95.526
-103.43
-111.062
-118.399
-125.419
-132.102
-138.432
-144.395
-149.978
-155.174
-159.977
-164.384
-168.396
-172.015
-175.246
-178.096
-180.575
-182.693
-184.463
-185.901
-187.022
-187.845
-188.388
-188.672
-188.717
-188.546
-188.18
-187.644
-186.959
-186.149
-185.235
-184.241
-183.187
-182.095
-180.984
-179.873
-178.78
-177.721
-176.713
-175.769
-174.901
-174.121
-173.437
-172.857
-172.386
-172.028
-171.785
-171.658
-171.646
-171.748
-171.96
-172.279
-172.699
-173.215
-173.821
-174.508
-175.27
-176.097
-176.981
-177.912
-178.881
-179.88
-180.897
-181.926
-182.957
-183.983
-184.994
-185.983
-186.943
-187.866
-188.746
-189.576
-190.351
-191.066
-191.717
-192.302
-192.818
-193.264
-193.639
-193.943
-194.176
-194.34
-194.433
-194.458
-194.415
-194.305
-194.13
-193.891
-193.589
-193.227
-192.806
-192.328
-191.794
-191.205
-190.562
-189.864
-189.113
-188.309
-187.451
-186.54
-185.577
-184.563
-183.499
-182.385
-181.224
-180.016
-178.762
-177.463
-176.12
-174.733
-173.306
-171.84
-170.337
-168.802
-167.239
-165.655
-164.061
-162.466
-160.881
-159.317
-157.787
-156.306
-154.886
-153.541
-152.281
-151.117
-150.062
-149.132
-148.341
-147.707
-147.246
-146.971
-146.898
-147.039
-147.406
-148.009
-148.848
-149.923
-151.241
-152.808
-154.649
-156.782
-159.213
-161.945
-164.974
-168.281
-171.842
-175.619
-179.543
-183.548
-187.567
-191.535
-195.41
-199.141
-202.664
-205.913
-208.787
-211.198
-213.084
-214.39
-215.085
-215.181
-214.701
-213.722
-212.386
-210.817
-209.155
-207.563
-206.152
-205.071
-204.482
-204.495
-205.306
-207.155
-210.119
-214.183
-219.122
-224.418
-229.605
-234.258
-237.736
-239.39
-238.721
-235.408
-229.889
-223.163
-216.016
-209.142
-203.012
-197.839
-193.895
-190.977
-187.507
-180.979
-168.731
-147.953
-116.567
-72.958
-15.165
58.237
146.865
248.604
360.407
476.54
591.494
702.129
802.303
888.791
960.164
1007.774
1027.864
1017.989
971.766
895.094
793.732
669.369
535.162
401.961
279.631
184.677
119.96
77.803
51.151
28.426
5.151
-13.529
-25.866
-32.059
-34.517
-38.679
-46.828
-58.39
-72.226
-86.809
-101.008
-113.659
-123.384
-129.348
-131.384
-130.022
-126.216
-120.76
-114.385
-107.979
-102.361
-98.085
-95.427
-94.35
-94.648
-96.162
-98.726
-102.135
-106.174
-110.623
-115.31
-120.102
-124.827
-129.291
-133.275
-136.546
-138.946
-140.39
-140.816
-140.208
-138.587
-135.982
-132.462
-128.118
-123.026
-117.265
-110.913
-104.036
-96.723
-89.074
-81.187
-73.168
-65.095
-57.021
-48.986
-41.017
-33.127
-25.324
-17.605
-9.955
-2.369
5.149
12.599
19.97
27.257
34.46
41.577
48.609
55.551
62.396
69.136
75.763
82.263
88.626
94.836
100.875
106.73
112.389
117.843
123.082
128.098
132.88
137.421
141.711
145.742
149.504
152.987
156.18
159.074
161.661
163.932
165.881
167.5
168.785
169.731
170.336
170.596
170.512
170.084
169.314
168.205
166.762
164.989
162.896
160.49
157.78
154.778
151.495
147.945
144.142
140.1
135.835
131.363
126.703
121.873
116.891
111.777
106.552
101.237
95.852
90.419
84.959
79.493
74.042
68.626
63.264
57.974
52.775
47.684
42.716
37.886
33.208
28.694
24.355
20.202
16.243
12.485
8.936
5.598
2.478
-0.424
-3.105
-5.566
-7.807
-9.831
-11.64
-13.239
-14.634
-15.831
-16.837
-17.661
-18.311
-18.797
-19.13
-19.32
-19.378
-19.316
-19.145
-18.876
-18.523
-18.097
-17.609
-17.071
-16.495
-15.891
-15.272
-14.648
-14.029
-13.424
-12.845
-12.298
-11.794
-11.339
-10.941
-10.605
-10.339
-10.147
-10.032
-10
-10.051
-10.189
-10.414
-10.725
-11.124
-11.607
-12.174
-12.82
-13.542
-14.336
-15.196
-16.117
-17.093
-18.115
-19.177
-20.269
-21.383
-22.508
-23.636
-24.754
-25.852
-26.92
-27.945
-28.916
-29.822
-30.651
-31.392
-32.034
-32.565
-32.974
-33.251
-33.385
-33.366
-33.187
-32.838
-32.313
-31.604
-30.705
-29.613
-28.322
-26.831
-25.137
-23.24
-21.14
-18.84
-16.343
-13.654
-10.779
-7.725
-4.504
-1.125
2.398
6.052
9.822
13.691
17.642
21.656
25.712
29.789
33.865
37.915
41.911
45.823
49.621
53.274
56.752
60.028
63.074
65.867
68.382
70.599
72.495
74.052
75.251
76.07
76.489
76.491
76.064
75.209
73.928
72.227
70.113
67.59
64.653
61.296
57.512
53.3
48.668
43.622
38.183
32.386
26.287
19.976
13.53
7.002
0.439
-6.13
-12.638
-18.959
-24.964
-30.527
-35.537
-39.951
-43.697
-46.599
-48.662
-50.058
-50.978
-51.773
-52.592
-53.226
-53.685
-54.244
-54.835
-55.285
-55.495
-54.953
-53.711
-52.542
-51.495
-50.309
-49.269
-48.499
-48.139
-49.064
-51.208
-53.744
-57.171
-62
-68.016
-75.317
-83.281
-90.186
-95.333
-98.129
-96.276
-87.731
-70.713
-42.918
-3.48
47.547
111.187
187.64
275.47
373.631
479.812
590.269
702.674
812.631
914.021
1003.49
1076.388
1130.932
1167.564
1180.922
1168.635
1125.26
1044.835
933.088
793.035
636.03
481.62
339.926
225.259
142.799
82.638
38.973
3.082
-29.933
-54.468
-68.887
-74.419
-73.74
-73.241
-76.446
-83.292
-93.025
-104.401
-116.201
-127.358
-136.543
-142.156
-143.406
-140.621
-134.51
-125.968
-115.983
-105.421
-95.188
-86.225
-79.031
-73.696
-70.163
-68.187
-67.539
-68.094
-69.675
-72.125
-75.378
-79.325
-83.818
-88.687
-93.656
-98.403
-102.649
-106.168
-108.81
-110.514
-111.254
-111.034
-109.901
-107.901
-105.067
-101.41
-96.899
-91.523
-85.314
-78.351
-70.765
-62.727
-54.411
-45.961
-37.491
-29.078
-20.767
-12.585
-4.536
3.387
11.188
18.848
26.324
33.572
40.555
47.263
53.706
59.91
65.916
71.757
77.463
83.052
88.532
93.896
99.132
104.215
109.117
113.82
118.316
122.597
126.661
130.5
134.103
137.458
140.549
143.359
145.871
148.068
149.937
151.466
152.651
153.488
153.978
154.121
153.917
153.37
152.478
151.243
149.668
147.756
145.511
142.939
140.047
136.845
133.345
129.559
125.503
121.193
116.644
111.875
106.906
101.754
96.441
90.986
85.41
79.733
73.976
68.159
62.303
56.43
50.558
44.707
38.897
33.146
27.47
21.886
16.409
11.052
5.828
0.75
-4.171
-8.925
-13.504
-17.898
-22.102
-26.111
-29.92
-33.529
-36.936
-40.143
-43.15
-45.962
-48.582
-51.015
-53.266
-55.341
-57.247
-58.989
-60.576
-62.015
-63.314
-64.48
-65.523
-66.45
-67.27
-67.992
-68.624
-69.176
-69.655
-70.07
-70.43
-70.744
-71.019
-71.263
-71.487
-71.696
-71.898
-72.101
-72.312
-72.535
-72.778
-73.043
-73.337
-73.662
-74.023
-74.422
-74.863
-75.349
-75.882
-76.466
-77.103
-77.794
-78.541
-79.346
-80.21
-81.134
-82.118
-83.162
-84.265
-85.427
-86.645
-87.919
-89.245
-90.62
-92.04
-93.499
-94.994
-96.517
-98.063
-99.626
-101.199
-102.775
-104.349
-105.914
-107.462
-108.987
-110.481
-111.938
-113.348
-114.703
-115.995
-117.215
-118.353
-119.401
-120.35
-121.19
-121.915
-122.514
-122.98
-123.306
-123.483
-123.506
-123.368
-123.064
-122.591
-121.946
-121.127
-120.135
-118.97
-117.635
-116.132
-114.466
-112.642
-110.665
-108.541
-106.279
-103.888
-101.378
-98.76
-96.046
-93.251
-90.393
-87.492
-84.568
-81.645
-78.745
-75.893
-73.116
-70.438
-67.884
-65.476
-63.236
-61.187
-59.352
-57.757
-56.428
-55.385
-54.652
-54.247
-54.188
-54.49
-55.166
-56.216
-57.645
-59.454
-61.653
-64.262
-67.3
-70.772
-74.68
-79.014
-83.751
-88.864
-94.309
-100.015
-105.909
-111.918
-117.971
-124.017
-130.001
-135.853
-141.497
-146.825
-151.734
-156.148
-159.999
-163.243
-165.882
-167.93
-169.45
-170.571
-171.402
-172.074
-172.747
-173.532
-174.576
-176.041
-178.031
-180.754
-184.481
-189.318
-195.256
-202.065
-209.185
-216.12
-222.469
-227.609
-230.872
-231.797
-230.1
-226.28
-221.543
-216.817
-212.779
-209.891
-208.328
-208.178
-209.129
-209.445
-206.227
-196.576
-177.647
-147.311
-103.891
-45.551
28.774
118.729
222.184
335.575
454.865
574.523
688.497
792.172
879.749
948.87
999.03
1023.696
1019.168
981.028
905.099
800.722
677.921
546.685
419
296.944
182.281
78.959
-11.79
-86.349
-142.713
-182.894
-208.696
-222.223
-226.4
-223.118
-214.57
-204.028
-193.461
-183.809
-176.339
-171.642
-169.975
-172.423
-179.09
-188.647
-200.296
-213.069
-225.467
-236.989
-247.168
-254.806
-259.578
-261.909
-262.098
-261.085
-260.11
-259.593
-259.899
-261.573
-264.637
-268.979
-274.458
-280.459
-286.28
-291.536
-295.905
-299.181
-301.37
-302.425
-302.325
-301.18
-299.108
-296.21
-292.585
-288.272
-283.29
-277.69
-271.535
-264.913
-257.924
-250.657
-243.194
-235.597
-227.906
-220.159
-212.378
-204.575
-196.758
-188.923
-181.06
-173.172
-165.268
-157.349
-149.423
-141.487
-133.533
-125.561
-117.571
-109.566
-101.556
-93.549
-85.554
-77.585
-69.657
-61.786
-53.991
-46.287
-38.688
-31.208
-23.862
-16.665
-9.633
-2.783
3.873
10.317
16.534
22.509
28.225
33.668
38.824
43.678
48.219
52.434
56.313
59.846
63.026
65.847
68.304
70.397
72.123
73.486
74.487
75.134
75.432
75.392
75.023
74.338
73.351
72.079
70.538
68.748
66.73
64.503
62.091
59.517
56.803
53.974
51.053
48.064
45.032
41.98
38.932
35.91
32.939
30.039
27.23
24.532
21.962
19.537
17.271
15.176
13.263
11.541
10.018
8.699
7.589
6.69
6.001
5.523
5.252
5.183
5.31
5.625
6.12
6.783
7.605
8.573
9.676
10.9
12.232
13.659
15.167
16.742
18.371
20.038
21.73
23.434
25.136
26.823
28.485
30.109
31.686
33.206
34.66
36.039
37.336
38.543
39.655
40.665
41.57
42.365
43.047
43.614
44.065
44.399
44.617
44.717
44.702
44.572
44.329
43.973
43.507
42.932
42.251
41.467
40.583
39.601
38.524
37.357
36.1
34.758
33.333
31.827
30.243
28.585
26.855
25.056
23.193
21.27
19.289
17.257
15.178
13.055
10.895
8.702
6.481
4.238
1.979
-0.289
-2.558
-4.821
-7.071
-9.3
-11.498
-13.657
-15.769
-17.827
-19.821
-21.742
-23.583
-25.333
-26.985
-28.528
-29.954
-31.252
-32.413
-33.43
-34.293
-34.996
-35.531
-35.893
-36.077
-36.076
-35.888
-35.51
-34.939
-34.175
-33.216
-32.065
-30.725
-29.2
-27.497
-25.622
-23.583
-21.391
-19.057
-16.591
-14.006
-11.316
-8.534
-5.676
-2.757
0.204
3.189
6.177
9.143
12.062
14.911
17.663
20.292
22.772
25.078
27.187
29.079
30.734
32.133
33.254
34.078
34.583
34.754
34.576
34.038
33.128
31.838
30.165
28.114
25.691
22.9
19.736
16.18
12.227
7.879
3.147
-1.948
-7.38
-13.12
-19.114
-25.286
-31.555
-37.836
-44.055
-50.157
-56.072
-61.723
-67.005
-71.791
-75.984
-79.51
-82.324
-84.413
-85.762
-86.379
-86.341
-85.767
-84.809
-83.654
-82.443
-81.317
-80.453
-79.989
-80.166
-81.31
-83.555
-86.912
-91.186
-95.899
-100.674
-105.238
-109.054
-111.457
-111.934
-110.126
-106.44
-101.942
-97.363
-93.23
-89.896
-87.533
-86.413
-86.432
-86.07
-82.682
-73.476
-55.644
-27.082
14.089
70.179
142.755
231.668
334.843
448.669
568.723
690.594
808.885
916.864
1007.819
1075.88
1117.321
1130.413
1114.394
1069.61
998.592
906.301
799.342
684.961
569.125
457.009
353.925
264.29
190.888
134.111
92.04
61.851
41.435
28.659
20.541
14.153
7.005
-1.764
-11.193
-20.155
-28.413
-36.082
-42.741
-47.652
-50.007
-50.041
-49.223
-48.758
-48.881
-49.075
-48.955
-48.607
-48.359
-48.05
-46.83
-44.092
-39.944
-35.179
-30.581
-26.481
-22.896
-19.851
-17.613
-16.395
-16.085
-16.246
-16.441
-16.447
-16.219
-15.827
-15.277
-14.504
-13.48
-12.21
-10.675
-8.868
-6.777
-4.356
-1.595
1.49
4.876
8.529
12.417
16.547
20.949
25.654
30.696
36.073
41.746
47.651
53.689
59.781
65.87
71.906
77.856
83.696
89.408
94.99
100.447
105.763
110.903
115.829
120.505
124.918
129.075
132.995
136.713
140.258
143.656
146.925
150.077
153.114
156.029
158.81
161.436
163.892
166.176
168.28
170.205
171.942
173.48
174.806
175.905
176.76
177.355
177.676
177.709
177.448
176.888
176.027
174.869
173.417
171.672
169.639
167.319
164.718
161.838
158.687
155.27
151.595
147.672
143.514
139.134
134.546
129.766
124.809
119.692
114.434
109.051
103.563
97.988
92.347
86.658
80.941
75.216
69.502
63.818
58.182
52.61
47.121
41.729
36.448
31.292
26.274
21.404
16.693
12.148
7.778
3.59
-0.413
-4.225
-7.843
-11.267
-14.495
-17.53
-20.372
-23.025
-25.494
-27.783
-29.899
-31.848
-33.637
-35.274
-36.769
-38.129
-39.365
-40.486
-41.501
-42.42
-43.255
-44.014
-44.707
-45.345
-45.938
-46.494
-47.024
-47.536
-48.038
-48.539
-49.046
-49.566
-50.104
-50.668
-51.261
-51.888
-52.553
-53.259
-54.009
-54.804
-55.645
-56.533
-57.468
-58.45
-59.477
-60.548
-61.662
-62.817
-64.009
-65.238
-66.499
-67.789
-69.105
-70.443
-71.799
-73.168
-74.545
-75.927
-77.308
-78.683
-80.048
-81.397
-82.727
-84.033
-85.311
-86.558
-87.769
-88.942
-90.074
-91.163
-92.207
-93.206
-94.158
-95.064
-95.924
-96.738
-97.507
-98.233
-98.917
-99.561
-100.167
-100.737
-101.275
-101.782
-102.262
-102.718
-103.155
-103.575
-103.984
-104.385
-104.783
-105.183
-105.589
-106.005
-106.436
-106.886
-107.36
-107.86
-108.39
-108.953
-109.551
-110.185
-110.857
-111.566
-112.311
-113.092
-113.907
-114.753
-115.626
-116.524
-117.442
-118.376
-119.319
-120.268
-121.215
-122.155
-123.081
-123.986
-124.863
-125.705
-126.503
-127.25
-127.938
-128.557
-129.1
-129.558
-129.921
-130.182
-130.332
-130.362
-130.267
-130.039
-129.672
-129.161
-128.502
-127.691
-126.726
-125.605
-124.329
-122.897
-121.312
-119.577
-117.695
-115.672
-113.514
-111.227
-108.82
-106.302
-103.684
-100.974
-98.186
-95.331
-92.423
-89.476
-86.505
-83.527
-80.561
-77.629
-74.752
-71.954
-69.257
-66.685
-64.263
-62.013
-59.955
-58.107
-56.485
-55.106
-53.988
-53.151
-52.612
-52.386
-52.485
-52.92
-53.7
-54.834
-56.322
-58.154
-60.325
-62.828
-65.668
-68.863
-72.423
-76.345
-80.622
-85.233
-90.156
-95.362
-100.802
-106.401
-112.085
-117.778
-123.417
-128.961
-134.35
-139.517
-144.369
-148.782
-152.66
-155.928
-158.526
-160.429
-161.623
-162.112
-161.962
-161.283
-160.197
-158.859
-157.406
-155.956
-154.674
-153.694
-153.23
-153.611
-155.016
-157.494
-160.884
-164.706
-168.48
-171.864
-174.35
-175.312
-174.332
-171.143
-166.224
-160.901
-156.365
-153.526
-152.924
-154.63
-158.606
-164.493
-170.523
-173.586
-170.146
-156.673
-130.85
-91.047
-35.289
37.831
128.578
234.078
348.008
464.462
578.946
691.212
804.867
918.357
