Name,Waqar Muhammad
Date of Birth,"Jul 5, 1993"
Recorded Date,2025-01-05 21:41:50 -0500
Classification,Sinus Rhythm
Symptoms,
Software Version,1.90
Device,"Watch6,7"
Sample Rate,512 hertz


Lead,Lead I
Unit,µV

-191.67
-93.053
-25.256
7.717
11.439
1.074
-11.327
-19.838
-23.477
-27.964
-38.372
-54.43
-71.856
-82.399
-75.246
-43.199
13.842
92.295
184.443
280.366
374.269
458.847
523.383
559.295
556.218
507.911
417.988
291.992
141.192
-18.383
-172.294
-302.669
-395.758
-448.397
-464.6
-457.19
-439.131
-416.261
-388.82
-352.775
-307.06
-255.027
-203.425
-159.986
-126.707
-103.344
-87.796
-76.298
-69.226
-66.722
-67.627
-71.544
-75.801
-77.838
-77.14
-73.545
-67.526
-60.026
-51.666
-43.045
-35.174
-29.05
-25.134
-23.492
-23.91
-25.932
-29.143
-33.23
-37.722
-42.075
-45.943
-49.091
-51.414
-52.956
-53.734
-53.727
-52.963
-51.488
-49.352
-46.642
-43.441
-39.806
-35.835
-31.62
-27.262
-22.894
-18.618
-14.512
-10.638
-7.021
-3.676
-0.62
2.143
4.628
6.853
8.854
10.668
12.323
13.857
15.309
16.728
18.172
19.685
21.298
23.035
24.908
26.928
29.105
31.441
33.929
36.564
39.337
42.244
45.283
48.447
51.725
55.104
58.568
62.101
65.692
69.327
72.989
76.663
80.333
83.984
87.602
91.171
94.671
98.084
101.389
104.565
107.593
110.452
113.123
115.585
117.821
119.814
121.549
123.012
124.19
125.07
125.642
125.899
125.833
125.438
124.712
123.652
122.259
120.533
118.481
116.106
113.415
110.418
107.126
103.549
99.703
95.601
91.262
86.702
81.94
76.998
71.895
66.654
61.297
55.847
50.328
44.762
39.173
33.584
28.019
22.499
17.046
11.683
6.428
1.302
-3.676
-8.491
-13.124
-17.562
-21.79
-25.796
-29.57
-33.101
-36.383
-39.409
-42.175
-44.676
-46.913
-48.885
-50.593
-52.042
-53.235
-54.179
-54.881
-55.35
-55.594
-55.624
-55.453
-55.091
-54.553
-53.851
-53.001
-52.017
-50.914
-49.707
-48.411
-47.041
-45.614
-44.143
-42.643
-41.129
-39.614
-38.111
-36.634
-35.194
-33.802
-32.468
-31.203
-30.014
-28.908
-27.893
-26.972
-26.151
-25.433
-24.82
-24.313
-23.914
-23.621
-23.435
-23.352
-23.371
-23.487
-23.697
-23.997
-24.379
-24.84
-25.373
-25.972
-26.629
-27.339
-28.093
-28.886
-29.709
-30.557
-31.421
-32.294
-33.17
-34.042
-34.905
-35.751
-36.577
-37.376
-38.146
-38.881
-39.58
-40.238
-40.853
-41.423
-41.947
-42.423
-42.85
-43.228
-43.556
-43.835
-44.066
-44.249
-44.385
-44.475
-44.521
-44.523
-44.483
-44.403
-44.282
-44.123
-43.924
-43.688
-43.416
-43.107
-42.762
-42.381
-41.963
-41.509
-41.018
-40.487
-39.916
-39.302
-38.643
-37.938
-37.182
-36.375
-35.513
-34.593
-33.613
-32.57
-31.462
-30.287
-29.043
-27.727
-26.338
-24.874
-23.337
-21.726
-20.04
-18.283
-16.456
-14.566
-12.618
-10.616
-8.568
-6.48
-4.36
-2.217
-0.059
2.108
4.278
6.442
8.588
10.706
12.785
14.814
16.783
18.678
20.489
22.204
23.816
25.323
26.719
27.998
29.149
30.155
31.004
31.692
32.21
32.556
32.732
32.744
32.608
32.355
32.009
31.592
31.117
30.59
30.025
29.435
28.843
28.275
27.746
27.266
26.848
26.49
26.171
25.854
25.472
24.932
24.168
23.11
21.697
19.882
17.594
14.78
11.413
7.451
2.857
-2.377
-8.231
-14.552
-21.03
-27.346
-33.166
-38.125
-41.883
-44.109
-44.602
-43.565
-41.558
-39.23
-37.161
-35.889
-36.021
-38.202
-42.953
-49.232
-54.436
-56.166
-52.086
-42.776
-31.844
-19.819
-5.657
15.076
51.874
108.071
182.606
271.02
361.324
444.484
512.395
555.671
567.274
538.486
464.482
346.077
191.293
17.859
-154.476
-304.661
-415.313
-480.243
-500.346
-483.606
-444.484
-394.954
-344.422
-301.144
-265.836
-236.559
-210.784
-182.388
-150.121
-116.428
-84.091
-58.289
-41.129
-31.299
-27.148
-26.239
-26.692
-27.766
-28.705
-28.662
-27.299
-24.669
-20.969
-16.538
-11.838
-7.266
-3.319
-0.665
0.484
0.301
-0.99
-3.046
-5.566
-8.342
-11.036
-13.216
-14.646
-15.246
-15.016
-14.061
-12.448
-10.199
-7.403
-4.195
-0.709
2.906
6.537
10.129
13.632
16.99
20.151
23.065
25.705
28.082
30.213
32.114
33.799
35.283
36.594
37.78
38.894
39.992
41.13
42.349
43.68
45.156
46.798
48.626
50.65
52.87
55.281
57.881
60.67
63.648
66.813
70.157
73.668
77.336
81.146
85.084
89.136
93.284
97.514
101.81
106.156
110.536
114.934
119.333
123.711
128.047
132.319
136.502
140.572
144.506
148.278
151.866
155.247
158.4
161.302
163.936
166.282
168.324
170.044
171.428
172.463
173.138
173.443
173.37
172.915
172.072
170.84
169.221
167.217
164.832
162.075
158.952
155.475
151.655
147.508
143.05
138.297
133.27
127.988
122.475
116.752
110.845
104.778
98.575
92.264
85.868
79.415
72.929
66.435
59.959
53.524
47.154
40.871
34.698
28.654
22.76
17.033
11.491
6.148
1.018
-3.887
-8.556
-12.979
-17.15
-21.063
-24.714
-28.101
-31.222
-34.079
-36.674
-39.01
-41.094
-42.932
-44.532
-45.902
-47.052
-47.994
-48.739
-49.298
-49.686
-49.915
-49.998
-49.95
-49.785
-49.515
-49.155
-48.719
-48.219
-47.668
-47.08
-46.465
-45.835
-45.202
-44.574
-43.962
-43.374
-42.817
-42.299
-41.826
-41.403
-41.035
-40.724
-40.475
-40.289
-40.167
-40.111
-40.12
-40.193
-40.33
-40.528
-40.786
-41.1
-41.468
-41.887
-42.353
-42.862
-43.412
-43.998
-44.617
-45.265
-45.938
-46.634
-47.347
-48.076
-48.817
-49.567
-50.323
-51.084
-51.846
-52.609
-53.369
-54.126
-54.878
-55.623
-56.36
-57.088
-57.807
-58.516
-59.213
-59.899
-60.572
-61.232
-61.879
-62.511
-63.129
-63.73
-64.313
-64.876
-65.418
-65.938
-66.432
-66.899
-67.336
-67.74
-68.108
-68.437
-68.724
-68.964
-69.153
-69.287
-69.362
-69.375
-69.321
-69.195
-68.995
-68.716
-68.357
-67.913
-67.384
-66.765
-66.056
-65.256
-64.364
-63.381
-62.307
-61.143
-59.894
-58.562
-57.155
-55.678
-54.136
-52.537
-50.889
-49.201
-47.481
-45.737
-43.975
-42.206
-40.44
-38.688
-36.961
-35.269
-33.625
-32.041
-30.528
-29.098
-27.759
-26.515
-25.37
-24.33
-23.405
-22.607
-21.944
-21.423
-21.047
-20.822
-20.746
-20.814
-21.01
-21.306
-21.68
-22.111
-22.586
-23.099
-23.637
-24.186
-24.731
-25.248
-25.727
-26.158
-26.528
-26.831
-27.08
-27.31
-27.586
-27.997
-28.618
-29.506
-30.711
-32.282
-34.271
-36.717
-39.649
-43.064
-46.956
-51.394
-56.408
-61.925
-67.792
-73.705
-79.284
-84.241
-88.253
-90.797
-91.529
-90.413
-87.582
-83.639
-79.412
-75.506
-72.695
-72.263
-74.559
-78.286
-81.858
-82.802
-79.947
-76.673
-75.995
-78.019
-80.044
-71.747
-41.13
17.517
105.577
214.536
328.402
432.153
509.514
549.497
546.477
497.096
404.884
274.594
116.303
-52.805
-215.491
-350.996
-444.748
-495.386
-508.526
-498.501
-479.805
-457.445
-431.78
-399.476
-356.686
-305.52
-250.882
-197.71
-150.873
-112.73
-83.694
-63.492
-51.045
-44.854
-43.319
-44.836
-47.67
-50.118
-50.802
-48.985
-44.617
-38.128
-30.196
-21.53
-12.909
-5.215
0.717
4.446
6.005
5.683
3.91
1.137
-2.255
-5.82
-9.039
-11.586
-13.31
-14.165
-14.21
-13.496
-12.032
-9.875
-7.138
-3.911
-0.31
3.551
7.592
11.701
15.777
19.746
23.526
27.065
30.342
33.342
36.064
38.523
40.729
42.698
44.466
46.065
47.54
48.945
50.332
51.759
53.278
54.924
56.73
58.716
60.894
63.269
65.841
68.601
71.547
74.673
77.973
81.44
85.068
88.843
92.751
96.774
100.896
105.1
109.369
113.686
118.036
122.4
126.763
131.11
135.421
139.677
143.857
147.937
151.894
155.705
159.347
162.796
166.031
169.029
171.771
174.238
176.414
178.282
179.827
181.036
181.898
182.403
182.543
182.312
181.704
180.718
179.353
177.61
175.495
173.011
170.167
166.971
163.435
159.572
155.396
150.924
146.172
141.159
135.907
130.436
124.768
118.929
112.941
106.829
100.618
94.334
88
81.642
75.283
68.948
62.658
56.437
50.305
44.283
38.39
32.645
27.064
21.662
16.454
11.452
6.668
2.109
-2.215
-6.298
-10.137
-13.727
-17.068
-20.159
-23.001
-25.598
-27.954
-30.073
-31.963
-33.63
-35.085
-36.335
-37.392
-38.266
-38.968
-39.511
-39.907
-40.169
-40.308
-40.338
-40.271
-40.121
-39.898
-39.616
-39.286
-38.919
-38.526
-38.117
-37.701
-37.287
-36.882
-36.495
-36.131
-35.796
-35.495
-35.232
-35.01
-34.832
-34.701
-34.617
-34.582
-34.595
-34.657
-34.768
-34.926
-35.131
-35.381
-35.674
-36.009
-36.384
-36.796
-37.243
-37.724
-38.235
-38.775
-39.341
-39.931
-40.544
-41.176
-41.827
-42.495
-43.178
-43.875
-44.583
-45.303
-46.033
-46.771
-47.518
-48.272
-49.034
-49.802
-50.576
-51.356
-52.14
-52.927
-53.716
-54.504
-55.29
-56.07
-56.843
-57.604
-58.351
-59.08
-59.787
-60.469
-61.121
-61.737
-62.314
-62.846
-63.327
-63.753
-64.117
-64.416
-64.643
-64.795
-64.868
-64.857
-64.76
-64.574
-64.294
-63.919
-63.445
-62.872
-62.198
-61.421
-60.542
-59.564
-58.491
-57.327
-56.08
-54.755
-53.361
-51.908
-50.403
-48.857
-47.276
-45.668
-44.041
-42.406
-40.774
-39.156
-37.562
-36.004
-34.494
-33.043
-31.659
-30.349
-29.118
-27.967
-26.902
-25.927
-25.055
-24.301
-23.681
-23.205
-22.882
-22.714
-22.703
-22.844
-23.127
-23.526
-24.02
-24.585
-25.201
-25.858
-26.542
-27.234
-27.913
-28.543
-29.087
-29.531
-29.876
-30.123
-30.292
-30.402
-30.473
-30.578
-30.804
-31.236
-31.976
-33.096
-34.641
-36.684
-39.319
-42.598
-46.531
-50.982
-55.652
-60.234
-64.472
-68.107
-70.857
-72.473
-72.829
-72.164
-71.111
-70.465
-70.892
-72.803
-76.653
-82.886
-91.573
-102.145
-112.563
-119.533
-120.254
-113.236
-99.487
-81.379
-59.866
-33.737
2.262
53.305
120.894
202.991
290.5
372.926
441.392
486.531
502.565
483.713
423.72
321.841
182.32
17.205
-152.653
-305.637
-423.698
-496.405
-525.819
-520.765
-492.373
-452.199
-406.978
-361.929
-321.146
-284.887
-252.49
-220.562
-185.857
-149.38
-114.081
-84.454
-63.61
-51.245
-45.45
-43.858
-44.582
-46.281
-47.804
-48.098
-46.51
-43.041
-38.053
-31.894
-25.001
-17.974
-11.51
-6.415
-3.093
-1.413
-1.06
-1.667
-2.908
-4.511
-6.113
-7.258
-7.66
-7.232
-5.991
-4.045
-1.479
1.678
5.354
9.426
13.766
18.238
22.71
27.111
31.388
35.476
39.321
42.87
46.087
48.969
51.54
53.817
55.816
57.553
59.048
60.344
61.493
62.555
63.592
64.651
65.768
66.979
68.312
69.792
71.435
73.246
75.222
77.361
79.668
82.146
84.797
87.619
90.604
93.742
97.025
100.442
103.981
107.631
111.378
115.211
119.115
123.08
127.091
131.134
135.191
139.241
143.262
147.232
151.128
154.925
158.598
162.122
165.475
168.632
171.571
174.271
176.712
178.873
180.737
182.286
183.506
184.382
184.902
185.057
184.839
184.24
183.258
181.889
180.135
177.997
175.479
172.588
169.33
165.717
161.761
157.475
152.875
147.98
142.808
137.382
131.723
125.857
119.807
113.6
107.263
100.821
94.303
87.733
81.14
74.549
67.986
61.476
55.043
48.71
42.499
36.432
30.528
24.805
19.281
13.969
8.885
4.041
-0.553
-4.889
-8.957
-12.754
-16.275
-19.518
-22.482
-25.169
-27.582
-29.726
-31.607
-33.233
-34.612
-35.756
-36.674
-37.38
-37.886
-38.206
-38.353
-38.341
-38.185
-37.9
-37.5
-36.998
-36.41
-35.749
-35.029
-34.262
-33.462
-32.639
-31.806
-30.974
-30.152
-29.351
-28.578
-27.843
-27.152
-26.513
-25.929
-25.407
-24.949
-24.558
-24.237
-23.987
-23.808
-23.7
-23.662
-23.694
-23.794
-23.959
-24.188
-24.479
-24.828
-25.233
-25.692
-26.201
-26.759
-27.361
-28.007
-28.693
-29.416
-30.175
-30.965
-31.784
-32.63
-33.499
-34.388
-35.294
-36.215
-37.147
-38.089
-39.037
-39.99
-40.944
-41.897
-42.848
-43.793
-44.73
-45.656
-46.567
-47.461
-48.335
-49.186
-50.009
-50.801
-51.559
-52.278
-52.952
-53.578
-54.15
-54.663
-55.112
-55.491
-55.796
-56.022
-56.166
-56.224
-56.193
-56.072
-55.857
-55.549
-55.144
-54.644
-54.047
-53.355
-52.569
-51.689
-50.72
-49.667
-48.536
-47.334
-46.068
-44.746
-43.377
-41.97
-40.536
-39.082
-37.614
-36.143
-34.677
-33.228
-31.808
-30.429
-29.101
-27.838
-26.651
-25.548
-24.538
-23.625
-22.811
-22.098
-21.489
-20.992
-20.621
-20.389
-20.301
-20.364
-20.578
-20.938
-21.439
-22.068
-22.797
-23.608
-24.477
-25.387
-26.334
-27.308
-28.298
-29.29
-30.252
-31.152
-31.974
-32.708
-33.361
-33.956
-34.51
-35.057
-35.649
-36.34
-37.204
-38.313
-39.72
-41.467
-43.557
-46.008
-48.92
-52.358
-56.289
-60.54
-64.778
-68.676
-72.05
-74.69
-76.235
-76.388
-75.026
-72.488
-69.597
-67.119
-65.688
-65.905
-68.411
-73.98
-82.227
-90.863
-97.294
-98.99
-96.267
-93.024
-90.457
-86.699
-75.2
-45.048
8.476
83.205
171.534
261.106
343.593
414.426
468.522
501.166
503.987
467.222
386.904
262.691
103.272
-72.143
-242.595
-383.492
-477.281
-523.143
-528.583
-509.698
-481.448
-446.581
-404.465
-353.706
-295.641
-238.763
-190.475
-153.308
-125.434
-102.254
-80.952
-61.93
-47.877
-40.566
-39.577
-42.956
-47.533
-51.027
-52.426
-51.404
-48.349
-43.744
-37.966
-31.562
-25.257
-19.786
-15.827
-13.664
-13.127
-13.889
-15.579
-17.847
-20.372
-22.769
-24.612
-25.637
-25.768
-25.025
-23.503
-21.279
-18.39
-14.911
-10.973
-6.709
-2.259
2.238
6.708
11.091
15.317
19.328
23.069
26.499
29.613
32.432
34.966
37.225
39.225
40.984
42.542
43.953
45.274
46.567
47.877
49.238
50.684
52.241
53.931
55.768
57.757
59.89
62.169
64.596
67.176
69.91
72.797
75.828
78.996
82.292
85.707
89.23
92.851
96.557
100.338
104.182
108.077
112.013
115.975
119.945
123.907
127.838
131.718
135.525
139.236
142.828
146.277
149.562
152.66
155.55
158.213
160.629
162.778
164.643
166.207
167.455
168.373
168.948
169.169
169.027
168.516
167.63
166.367
164.725
162.708
160.317
157.56
154.444
150.979
147.176
143.051
138.618
133.896
128.904
123.662
118.195
112.524
106.675
100.673
94.544
88.314
82.009
75.656
69.282
62.911
56.569
50.282
44.073
37.968
31.987
26.153
20.487
15.005
9.727
4.667
-0.161
-4.745
-9.075
-13.142
-16.94
-20.463
-23.71
-26.678
-29.369
-31.785
-33.929
-35.808
-37.428
-38.798
-39.928
-40.827
-41.509
-41.984
-42.267
-42.372
-42.311
-42.101
-41.756
-41.292
-40.724
-40.066
-39.335
-38.545
-37.711
-36.845
-35.962
-35.074
-34.192
-33.327
-32.49
-31.689
-30.932
-30.227
-29.579
-28.995
-28.478
-28.033
-27.662
-27.367
-27.149
-27.008
-26.946
-26.96
-27.05
-27.214
-27.45
-27.756
-28.128
-28.564
-29.061
-29.614
-30.219
-30.874
-31.573
-32.312
-33.087
-33.895
-34.73
-35.589
-36.468
-37.363
-38.271
-39.189
-40.113
-41.04
-41.967
-42.893
-43.813
-44.725
-45.625
-46.511
-47.38
-48.227
-49.052
-49.848
-50.614
-51.346
-52.039
-52.691
-53.297
-53.853
-54.353
-54.795
-55.173
-55.484
-55.722
-55.885
-55.968
-55.967
-55.882
-55.707
-55.442
-55.084
-54.63
-54.08
-53.433
-52.687
-51.844
-50.902
-49.865
-48.736
-47.521
-46.226
-44.856
-43.42
-41.925
-40.382
-38.799
-37.184
-35.544
-33.886
-32.222
-30.562
-28.919
-27.303
-25.726
-24.2
-22.738
-21.352
-20.05
-18.839
-17.72
-16.698
-15.78
-14.974
-14.298
-13.762
-13.375
-13.146
-13.079
-13.174
-13.427
-13.823
-14.335
-14.94
-15.62
-16.357
-17.141
-17.958
-18.792
-19.621
-20.423
-21.173
-21.851
-22.443
-22.952
-23.396
-23.807
-24.235
-24.743
-25.394
-26.265
-27.438
-28.982
-30.956
-33.387
-36.319
-39.816
-43.93
-48.66
-53.864
-59.283
-64.647
-69.707
-74.193
-77.765
-80.056
-80.832
-80.306
-78.974
-77.361
-76.104
-75.756
-76.899
-80.479
-86.477
-93.029
-98.154
-99.762
-97.123
-93.19
-89.927
-85.809
-76.907
-54.908
-11.74
53.54
137.922
234.066
330.568
419.37
491.806
538.517
551.949
522.95
447.422
326.512
168.312
-8.512
-183.052
-332.204
-438.338
-497.672
-514.317
-501.527
-473.952
-439.612
-403.696
-366.515
-327.382
-287.177
-245.377
-202.785
-160.453
-120.232
-86.071
-60.268
-43.616
-35.158
-32.012
-32.224
-34.346
-37.004
-39.311
-40.17
-38.901
-35.675
-30.928
-25.122
-18.85
-12.661
-7.159
-3.089
-0.74
0.062
-0.399
-1.745
-3.635
-5.813
-7.91
-9.476
-10.259
-10.181
-9.251
-7.577
-5.235
-2.252
1.276
5.212
9.42
13.754
18.095
22.388
26.579
30.61
34.426
37.974
41.227
44.191
46.882
49.313
51.495
53.441
55.178
56.752
58.217
59.628
61.042
62.502
64.04
65.688
67.469
69.403
71.499
73.759
76.176
78.747
81.475
84.359
87.397
90.581
93.901
97.346
100.903
104.558
108.298
112.106
115.969
119.872
123.802
127.745
131.687
135.612
139.502
143.338
147.1
150.766
154.314
157.723
160.971
164.037
166.9
169.541
171.941
174.084
175.953
177.533
178.81
179.772
180.407
180.708
180.665
180.274
179.531
178.433
176.981
175.177
173.025
170.531
167.703
164.55
161.083
157.315
153.26
148.934
144.355
139.54
134.51
129.287
123.891
118.347
112.677
106.905
101.055
95.152
89.219
83.278
77.354
71.469
65.643
59.898
54.255
48.731
43.345
38.114
33.053
28.176
23.496
19.024
14.768
10.738
6.94
3.378
0.057
-3.022
-5.857
-8.45
-10.803
-12.918
-14.802
-16.459
-17.898
-19.126
-20.152
-20.988
-21.643
-22.128
-22.457
-22.64
-22.69
-22.62
-22.442
-22.169
-21.813
-21.387
-20.902
-20.371
-19.804
-19.213
-18.607
-17.997
-17.391
-16.798
-16.225
-15.68
-15.17
-14.7
-14.276
-13.902
-13.584
-13.325
-13.127
-12.992
-12.924
-12.922
-12.987
-13.119
-13.319
-13.585
-13.918
-14.314
-14.773
-15.294
-15.874
-16.511
-17.202
-17.945
-18.736
-19.573
-20.454
-21.374
-22.33
-23.32
-24.341
-25.388
-26.458
-27.547
-28.649
-29.762
-30.879
-31.995
-33.106
-34.205
-35.288
-36.349
-37.382
-38.382
-39.343
-40.257
-41.119
-41.923
-42.662
-43.33
-43.92
-44.426
-44.843
-45.166
-45.389
-45.509
-45.521
-45.422
-45.207
-44.875
-44.424
-43.853
-43.16
-42.346
-41.413
-40.363
-39.204
-37.941
-36.581
-35.13
-33.599
-31.997
-30.334
-28.62
-26.862
-25.071
-23.258
-21.435
-19.615
-17.812
-16.039
-14.308
-12.637
-11.037
-9.519
-8.094
-6.764
-5.537
-4.419
-3.42
-2.553
-1.831
-1.261
-0.852
-0.609
-0.531
-0.614
-0.846
-1.199
-1.656
-2.201
-2.819
-3.503
-4.244
-5.03
-5.849
-6.686
-7.522
-8.341
-9.128
-9.875
-10.598
-11.327
-12.104
-12.996
-14.048
-15.307
-16.831
-18.669
-20.867
-23.462
-26.449
-29.832
-33.665
-37.983
-42.757
-47.853
-52.978
-57.811
-62.085
-65.503
-67.715
-68.404
-67.416
-64.986
-61.747
-58.431
-55.82
-54.695
-55.785
-59.917
-66.915
-74.872
-81.514
-84.245
-82.084
-77.81
-73.295
-68.25
-60.011
-39.683
1.057
65.488
153.823
257.914
364.018
457.966
523.592
547.543
523.272
450.952
337.52
195.604
40.006
-115.24
-255.673
-368.742
-446.819
-488.152
-498.47
-488.486
-468.645
-444.389
-416.32
-382.423
-340.392
-291.804
-240.624
-190.744
-146.102
-108.658
-78.788
-56.603
-41.489
-32.321
-28.017
-27.501
-29.383
-32.4
-35.376
-37.074
-36.929
-35.009
-31.516
-26.803
-21.443
-15.949
-10.927
-7.118
-4.763
-3.725
-3.819
-4.718
-6.086
-7.655
-9.047
-9.828
-9.792
-8.891
-7.144
-4.678
-1.573
2.119
6.269
10.721
15.325
19.925
24.431
28.806
32.995
36.943
40.602
43.93
46.922
49.601
51.982
54.082
55.917
57.508
58.898
60.141
61.295
62.424
63.576
64.786
66.087
67.507
69.068
70.788
72.671
74.712
76.91
79.266
81.783
84.46
87.294
90.275
93.392
96.634
99.988
103.443
106.985
110.6
114.273
117.992
121.743
125.512
129.283
133.038
136.756
140.416
143.996
147.471
150.818
154.013
157.031
159.85
162.446
164.799
166.887
168.691
170.192
171.374
172.221
172.72
172.858
172.627
172.018
171.024
169.643
167.873
165.715
163.172
160.248
156.952
153.293
149.281
144.931
140.257
135.277
130.01
124.475
118.695
112.694
106.496
100.128
93.616
86.989
80.275
73.501
66.696
59.889
53.106
46.376
39.724
33.176
26.756
20.487
14.392
8.49
2.8
-2.659
-7.874
-12.83
-17.516
-21.922
-26.04
-29.864
-33.391
-36.617
-39.542
-42.167
-44.496
-46.533
-48.284
-49.757
-50.962
-51.908
-52.609
-53.078
-53.329
-53.377
-53.238
-52.929
-52.466
-51.866
-51.147
-50.326
-49.419
-48.444
-47.418
-46.355
-45.272
-44.184
-43.104
-42.046
-41.022
-40.043
-39.119
-38.261
-37.476
-36.772
-36.156
-35.634
-35.209
-34.887
-34.67
-34.56
-34.558
-34.664
-34.877
-35.196
-35.618
-36.139
-36.756
-37.465
-38.259
-39.133
-40.083
-41.1
-42.179
-43.313
-44.495
-45.716
-46.97
-48.248
-49.543
-50.847
-52.152
-53.45
-54.735
-55.998
-57.232
-58.431
-59.588
-60.696
-61.747
-62.735
-63.653
-64.497
-65.259
-65.934
-66.518
-67.006
-67.395
-67.681
-67.864
-67.939
-67.907
-67.767
-67.518
-67.161
-66.697
-66.128
-65.456
-64.685
-63.82
-62.866
-61.831
-60.724
-59.552
-58.326
-57.054
-55.746
-54.414
-53.064
-51.703
-50.341
-48.987
-47.65
-46.343
-45.076
-43.859
-42.704
-41.622
-40.619
-39.703
-38.879
-38.145
-37.505
-36.962
-36.521
-36.201
-36.012
-35.962
-36.057
-36.299
-36.681
-37.197
-37.833
-38.561
-39.36
-40.209
-41.087
-41.991
-42.91
-43.832
-44.743
-45.609
-46.396
-47.088
-47.675
-48.167
-48.587
-48.956
-49.308
-49.697
-50.182
-50.839
-51.744
-52.946
-54.498
-56.435
-58.799
-61.714
-65.239
-69.305
-73.737
-78.189
-82.272
-85.723
-88.26
-89.46
-89.098
-87.245
-84.286
-81.164
-78.935
-78.358
-80.052
-84.577
-92.192
-102.451
-114.177
-125.468
-133.078
-133.952
-126.631
-108.931
-81.345
-46.699
-4.515
43.625
98.021
162.53
234.756
310.697
381.315
431.329
449.785
428.114
365.858
270.917
151.01
17.989
-117.155
-244.614
-349.813
-422.853
-460.447
-465.27
-449.152
-424.179
-396.412
-367.948
-336.675
-299.858
-258.979
-217.009
-177.218
-143.157
-116.164
-96.2
-82.736
-74.403
-69.805
-68.067
-68.252
-69.18
-69.814
-69.205
-66.896
-63.117
-58.311
-52.804
-46.968
-41.285
-36.3
-32.642
-30.61
-30.037
-30.607
-32.008
-33.96
-36.238
-38.553
-40.475
-41.722
-42.196
-41.885
-40.871
-39.225
-36.956
-34.111
-30.813
-27.183
-23.359
-19.481
-15.608
-11.787
-8.072
-4.505
-1.144
1.965
4.817
7.428
9.807
11.968
13.915
15.658
17.236
18.701
20.108
21.52
22.974
24.5
26.126
27.874
29.764
31.81
34.013
36.363
38.859
41.501
44.292
47.232
50.315
53.528
56.862
60.303
63.839
67.457
71.144
74.883
78.664
82.472
86.297
90.124
93.941
97.73
101.472
105.15
108.742
112.229
115.592
118.808
121.859
124.726
127.391
129.838
132.051
134.014
135.714
137.139
138.277
139.119
139.656
139.882
139.792
139.383
138.654
137.606
136.242
134.566
132.584
130.304
127.736
124.891
121.781
118.42
114.824
111.009
106.995
102.799
98.443
93.947
89.333
84.623
79.839
75.004
70.139
65.266
60.406
55.582
50.812
46.117
41.515
37.024
32.661
28.442
24.379
20.487
16.777
13.258
9.94
6.83
3.933
1.254
-1.204
-3.439
-5.452
-7.242
-8.813
-10.169
-11.315
-12.255
-12.999
-13.552
-13.925
-14.127
-14.167
-14.057
-13.808
-13.431
-12.938
-12.342
-11.654
-10.886
-10.05
-9.159
-8.223
-7.253
-6.261
-5.255
-4.247
-3.245
-2.258
-1.293
-0.36
0.536
1.387
2.187
2.932
3.617
4.237
4.79
5.272
5.68
6.013
6.269
6.448
6.548
6.569
6.513
6.379
6.17
5.886
5.532
5.108
4.619
4.067
3.455
2.787
2.068
1.299
0.487
-0.365
-1.252
-2.169
-3.11
-4.07
-5.042
-6.021
-7
-7.973
-8.935
-9.878
-10.797
-11.684
-12.533
-13.336
-14.088
-14.779
-15.404
-15.955
-16.426
-16.811
-17.105
-17.304
-17.403
-17.398
-17.286
-17.066
-16.735
-16.291
-15.735
-15.065
-14.282
-13.388
-12.387
-11.283
-10.084
-8.796
-7.427
-5.987
-4.485
-2.932
-1.336
0.295
1.951
3.624
5.304
6.98
8.64
10.269
11.856
13.386
14.846
16.228
17.522
18.721
19.822
20.824
21.721
22.508
23.168
23.687
24.056
24.268
24.322
24.221
23.972
23.586
23.086
22.496
21.837
21.133
20.387
19.601
18.777
17.927
17.082
16.273
15.517
14.811
14.146
13.51
12.893
12.275
11.616
10.851
9.916
8.748
7.301
5.554
3.5
1.098
-1.759
-5.124
-8.941
-13.026
-17.026
-20.589
-23.49
-25.462
-26.097
-25.123
-22.553
-18.747
-14.673
-11.46
-9.817
-10.41
-14.088
-21.201
-31.457
-44.042
-56.137
-64.57
-67.828
-63.536
-50.835
-29.591
2.685
45.153
96.692
156.281
219.535
285.735
352.591
414.365
465.191
493.001
486.227
437.944
345.516
215.818
62.637
-95.202
-236.819
-344.425
-407.149
-426.029
-411.292
-377.874
-340.194
-304.612
-271.119
-236.737
-198.248
-156.75
-116.07
-80.273
-52.719
-34.216
-23.688
-19.572
-20.048
-23.526
-28.65
-33.934
-38.022
-39.956
-39.447
-36.8
-32.547
-27.285
-21.573
-16.01
-11.257
-7.901
-6.152
-5.829
-6.605
-8.137
-10.165
-12.49
-14.845
-16.888
-18.367
-19.179
-19.324
-18.867
-17.856
-16.296
-14.225
-11.739
-8.97
-6.071
-3.155
-0.273
2.551
5.293
7.925
10.409
12.708
14.823
16.761
18.528
20.124
21.542
22.789
23.898
24.928
25.943
26.996
28.119
29.337
30.669
32.134
33.75
35.524
37.45
39.522
41.742
44.115
46.647
49.34
52.187
55.176
58.295
61.532
64.877
68.317
71.838
75.424
79.063
82.742
86.451
90.177
93.903
97.611
101.281
104.894
108.429
111.866
115.182
118.355
121.364
124.19
126.813
129.215
131.376
133.281
134.914
136.259
137.304
138.037
138.447
138.525
138.265
137.661
136.711
135.411
133.764
131.772
129.44
126.773
123.781
120.473
116.861
112.958
108.779
104.34
99.661
94.759
89.655
84.371
78.93
73.354
67.668
61.895
56.059
50.185
44.295
38.415
32.566
26.772
21.054
15.432
9.927
4.557
-0.66
-5.708
-10.571
-15.236
-19.691
-23.926
-27.93
-31.697
-35.221
-38.498
-41.523
-44.297
-46.819
-49.091
-51.116
-52.898
-54.443
-55.758
-56.851
-57.73
-58.406
-58.89
-59.194
-59.329
-59.309
-59.146
-58.854
-58.447
-57.937
-57.338
-56.663
-55.926
-55.14
-54.317
-53.469
-52.61
-51.748
-50.897
-50.065
-49.262
-48.497
-47.778
-47.113
-46.509
-45.972
-45.506
-45.118
-44.811
-44.588
-44.452
-44.404
-44.444
-44.572
-44.789
-45.091
-45.477
-45.945
-46.491
-47.112
-47.803
-48.56
-49.378
-50.251
-51.174
-52.138
-53.138
-54.166
-55.215
-56.277
-57.344
-58.41
-59.466
-60.505
-61.517
-62.495
-63.431
-64.316
-65.142
-65.901
-66.584
-67.185
-67.696
-68.113
-68.429
-68.641
-68.743
-68.733
-68.607
-68.364
-68.002
-67.521
-66.919
-66.199
-65.362
-64.413
-63.357
-62.201
-60.954
-59.622
-58.217
-56.748
-55.226
-53.659
-52.058
-50.429
-48.784
-47.133
-45.486
-43.857
-42.26
-40.707
-39.212
-37.789
-36.447
-35.197
-34.046
-32.997
-32.054
-31.22
-30.505
-29.924
-29.492
-29.218
-29.108
-29.163
-29.376
-29.742
-30.243
-30.854
-31.545
-32.288
-33.057
-33.843
-34.643
-35.451
-36.253
-37.019
-37.718
-38.337
-38.879
-39.357
-39.787
-40.185
-40.583
-41.044
-41.649
-42.483
-43.628
-45.132
-47.011
-49.268
-51.919
-55.046
-58.698
-62.806
-67.177
-71.522
-75.566
-79.134
-82.024
-83.839
-84.209
-83.045
-80.607
-77.549
-74.56
-72.152
-70.821
-71.243
-74.181
-79.152
-84.27
-87.566
-86.814
-82.262
-76.695
-69.851
-59.727
-41.792
-8.709
41.201
105.136
178.109
252.101
321.489
381.759
426.381
448.476
439.609
392.989
307.724
186.693
40.353
-114.085
-258.658
-372.864
-443.007
-468.741
-457.643
-425.765
-388.81
-352.904
-318.753
-282.853
-241.469
-196.223
-150.931
-109.69
-76.089
-51.012
-33.849
-23.596
-18.629
-17.41
-18.76
-21.293
-23.796
-25.406
-25.35
-23.429
-19.981
-15.426
-10.207
-4.885
0.051
4.145
6.881
8.159
8.232
7.338
5.78
3.849
1.752
-0.194
-1.607
-2.303
-2.234
-1.409
0.071
2.153
4.819
7.964
11.452
15.144
18.881
22.584
26.222
29.755
33.144
36.34
39.293
41.992
44.453
46.687
48.705
50.511
52.112
53.545
54.864
56.125
57.391
58.703
60.088
61.575
63.185
64.937
66.846
68.914
71.131
73.496
76.01
78.676
81.497
84.465
87.57
90.801
94.144
97.587
101.116
104.718
108.376
112.076
115.805
119.548
123.294
127.026
130.724
134.371
137.944
141.422
144.785
148.009
151.072
153.952
156.63
159.087
161.303
163.261
164.945
166.339
167.43
168.204
168.649
168.756
168.515
167.921
166.969
165.655
163.981
161.945
159.553
156.809
153.721
150.298
146.55
142.491
138.134
133.497
128.597
123.454
118.088
112.521
106.776
100.877
94.847
88.711
82.494
76.22
69.913
63.598
57.298
51.036
44.836
38.718
32.704
26.815
21.069
15.486
10.08
4.869
-0.133
-4.915
-9.464
-13.772
-17.829
-21.63
-25.17
-28.445
-31.453
-34.196
-36.675
-38.892
-40.852
-42.561
-44.026
-45.254
-46.255
-47.038
-47.613
-47.991
-48.185
-48.205
-48.065
-47.777
-47.354
-46.809
-46.155
-45.405
-44.573
-43.671
-42.713
-41.711
-40.678
-39.626
-38.566
-37.51
-36.469
-35.451
-34.466
-33.522
-32.627
-31.788
-31.011
-30.301
-29.663
-29.101
-28.618
-28.215
-27.896
-27.66
-27.509
-27.442
-27.459
-27.559
-27.74
-28.001
-28.339
-28.751
-29.235
-29.785
-30.397
-31.066
-31.786
-32.551
-33.353
-34.185
-35.041
-35.912
-36.79
-37.669
-38.541
-39.397
-40.229
-41.029
-41.791
-42.505
-43.165
-43.763
-44.293
-44.748
-45.123
-45.412
-45.612
-45.717
-45.724
-45.63
-45.431
-45.126
-44.712
-44.189
-43.556
-42.814
-41.968
-41.02
-39.978
-38.849
-37.64
-36.362
-35.024
-33.637
-32.21
-30.754
-29.276
-27.786
-26.293
-24.809
-23.347
-21.917
-20.533
-19.207
-17.951
-16.773
-15.685
-14.693
-13.798
-13.005
-12.319
-11.747
-11.309
-11.017
-10.882
-10.914
-11.113
-11.478
-12.005
-12.678
-13.471
-14.361
-15.322
-16.331
-17.38
-18.459
-19.555
-20.658
-21.735
-22.755
-23.707
-24.586
-25.399
-26.174
-26.935
-27.72
-28.6
-29.646
-30.938
-32.558
-34.562
-37
-39.893
-43.263
-47.182
-51.69
-56.738
-62.174
-67.686
-72.928
-77.651
-81.573
-84.33
-85.652
-85.403
-83.785
-81.545
-79.5
-78.27
-78.554
-80.997
-86.004
-93.895
-103.458
-111.673
-115.786
-113.132
-103.979
-91.786
-77.864
-62.396
-40.855
-3.86
53.595
133.059
229.337
328.265
415.045
475.223
496.643
473.798
407.028
300.98
165.18
13.33
-139.9
-277.959
-385.561
-454.367
-483.824
-482.122
-462.163
-434.754
-404.858
-371.899
-333.172
-287.383
-237.039
-186.582
-140.491
-102.265
-73.194
-53.279
-41.703
-36.813
-36.81
-40.126
-45.102
-50.233
-54.323
-56.3
-55.753
-52.972
-48.471
-42.828
-36.732
-30.817
-25.672
-21.934
-19.8
-19.051
-19.433
-20.609
-22.241
-24.078
-25.769
-26.904
-27.282
-26.852
-25.625
-23.705
-21.155
-17.998
-14.342
-10.325
-6.088
-1.79
2.488
6.714
10.843
14.836
18.642
22.208
25.52
28.593
31.433
34.046
36.436
38.601
40.576
42.41
44.158
45.88
47.619
49.401
51.255
53.202
55.262
57.451
59.768
62.206
64.762
67.439
70.239
73.167
76.218
79.383
82.653
86.016
89.463
92.984
96.566
100.196
103.864
107.559
111.271
114.99
118.704
122.397
126.053
129.655
133.183
136.62
139.943
143.134
146.172
149.038
151.714
154.181
156.423
158.422
160.164
161.633
162.816
163.699
164.272
164.523
164.445
164.031
163.276
162.175
160.728
158.934
156.795
154.315
151.499
148.354
144.89
141.116
137.045
132.691
128.07
123.199
118.096
112.782
107.277
101.604
95.785
89.843
83.8
77.681
71.51
65.308
59.1
52.908
46.754
40.661
34.649
28.74
22.951
17.303
11.811
6.493
1.362
-3.567
-8.282
-12.773
-17.03
-21.046
-24.814
-28.331
-31.592
-34.596
-37.345
-39.839
-42.082
-44.078
-45.833
-47.356
-48.652
-49.733
-50.608
-51.287
-51.781
-52.104
-52.266
-52.281
-52.161
-51.919
-51.569
-51.123
-50.594
-49.997
-49.343
-48.645
-47.915
-47.166
-46.409
-45.654
-44.912
-44.193
-43.506
-42.859
-42.26
-41.717
-41.233
-40.816
-40.468
-40.194
-39.996
-39.875
-39.832
-39.867
-39.978
-40.166
-40.429
-40.763
-41.167
-41.637
-42.17
-42.763
-43.41
-44.107
-44.849
-45.63
-46.444
-47.284
-48.143
-49.015
-49.892
-50.766
-51.631
-52.479
-53.303
-54.094
-54.844
-55.547
-56.196
-56.782
-57.3
-57.743
-58.106
-58.384
-58.573
-58.67
-58.673
-58.579
-58.387
-58.095
-57.703
-57.211
-56.618
-55.927
-55.138
-54.254
-53.28
-52.221
-51.083
-49.875
-48.605
-47.284
-45.921
-44.528
-43.115
-41.691
-40.268
-38.854
-37.458
-36.09
-34.762
-33.485
-32.27
-31.128
-30.07
-29.101
-28.229
-27.46
-26.798
-26.241
-25.788
-25.441
-25.207
-25.103
-25.144
-25.338
-25.686
-26.189
-26.845
-27.647
-28.581
-29.619
-30.729
-31.88
-33.053
-34.243
-35.443
-36.644
-37.821
-38.926
-39.929
-40.819
-41.595
-42.26
-42.824
-43.296
-43.71
-44.153
-44.72
-45.507
-46.59
-48.003
-49.755
-51.863
-54.396
-57.42
-60.917
-64.759
-68.699
-72.483
-75.936
-78.87
-80.973
-81.921
-81.545
-79.997
-77.837
-75.703
-74.19
-73.98
-75.817
-80.497
-87.898
-96.102
-102.402
-103.886
-99.682
-93.311
-88.305
-86.115
-84.378
-71.714
-35.866
30.042
127.39
243.219
357.285
451.69
509.353
523.154
493.571
420.769
309.021
164.207
-3.973
-176.135
-329.238
-442.488
-503.766
-516.368
-495.02
-457.729
-418.557
-382.026
-345.553
-304.694
-257.287
-205.863
-155.144
-109.851
-73.219
-45.916
-27.391
-16.508
-11.56
-10.957
-13.335
-17.063
-20.748
-23.366
-23.979
-22.324
-18.735
-13.628
-7.505
-1.043
5.172
10.585
14.58
17.016
18.125
18.127
17.341
16.086
14.595
13.225
12.385
12.263
12.904
14.289
16.306
18.894
22.025
25.587
29.44
33.446
37.457
41.404
45.264
49.001
52.577
55.944
59.053
61.894
64.486
66.842
68.974
70.892
72.605
74.159
75.61
77.016
78.44
79.925
81.498
83.19
85.022
87.017
89.189
91.542
94.067
96.766
99.638
102.687
105.913
109.308
112.86
116.558
120.386
124.331
128.38
132.518
136.727
140.994
145.305
149.645
154.001
158.356
162.691
166.985
171.218
175.366
179.408
183.32
187.077
190.659
194.041
197.205
200.129
202.794
205.182
207.276
209.061
210.522
211.647
212.424
212.844
212.9
212.586
211.9
210.838
209.403
207.596
205.423
202.89
200.005
196.778
193.219
189.343
185.164
180.698
175.963
170.977
165.763
160.34
154.733
148.964
143.057
137.036
130.925
124.749
118.531
112.295
106.064
99.862
93.709
87.627
81.637
75.757
70.007
64.402
58.959
53.691
48.611
43.73
39.059
34.606
30.376
26.377
22.611
19.082
15.79
12.735
9.916
7.328
4.968
2.829
0.906
-0.811
-2.331
-3.662
-4.816
-5.804
-6.637
-7.328
-7.889
-8.333
-8.671
-8.919
-9.087
-9.189
-9.238
-9.245
-9.222
-9.182
-9.133
-9.088
-9.055
-9.043
-9.061
-9.117
-9.216
-9.366
-9.57
-9.834
-10.161
-10.553
-11.012
-11.539
-12.133
-12.793
-13.516
-14.302
-15.144
-16.04
-16.983
-17.968
-18.988
-20.038
-21.109
-22.195
-23.286
-24.376
-25.456
-26.517
-27.55
-28.547
-29.499
-30.397
-31.232
-31.996
-32.682
-33.28
-33.786
-34.192
-34.493
-34.683
-34.757
-34.713
-34.548
-34.259
-33.848
-33.312
-32.655
-31.878
-30.988
-29.99
-28.893
-27.702
-26.429
-25.083
-23.675
-22.216
-20.716
-19.184
-17.632
-16.071
-14.513
-12.971
-11.46
-9.991
-8.582
-7.247
-5.998
-4.848
-3.806
-2.879
-2.073
-1.396
-0.854
-0.463
-0.232
-0.166
-0.274
-0.556
-1.008
-1.621
-2.376
-3.244
-4.203
-5.233
-6.312
-7.433
-8.584
-9.758
-10.949
-12.14
-13.312
-14.459
-15.578
-16.67
-17.76
-18.88
-20.078
-21.435
-23.018
-24.873
-27.049
-29.577
-32.488
-35.802
-39.523
-43.625
-48.106
-53.002
-58.288
-63.868
-69.518
-74.88
-79.599
-83.383
-85.93
-86.85
-85.896
-83.08
-78.803
-73.926
-69.29
-65.601
-63.571
-63.954
-67.441
-73.362
-79.442
-83.106
-81.499
-75.034
-67.346
-59.492
-51.698
-39.129
-11.21
37.222
108.328
197.898
291.885
377.425
440.935
470.218
459.561
404.678
306.198
170.28
7.431
-164.535
-323.919
-449.158
-523.666
-542.95
-516.989
-465.085
-409.729
-368.421
-345.514
-336.012
-329.411
-313.848
-285.321
-245.983
-201.672
-160.997
-128.373
-104.281
-87.601
-75.534
-66.783
-61.555
-59.459
-59.741
-61.248
-62.494
-62.775
-62.121
-60.468
-57.765
-54.213
-50.161
-46.23
-43.218
-41.422
-40.698
-40.896
-41.783
-43.124
-44.723
-46.213
-47.142
-47.279
-46.565
-45.026
-42.784
-39.918
-36.467
-32.552
-28.323
-23.934
-19.538
-15.225
-11.03
-7.003
-3.196
0.344
3.573
6.485
9.103
11.442
13.52
15.353
16.961
18.383
19.67
20.875
22.058
23.263
24.52
25.858
27.302
28.87
30.576
32.423
34.405
36.518
38.763
41.138
43.644
46.275
49.021
51.87
54.812
57.832
60.92
64.061
67.243
70.453
73.677
76.905
80.123
83.318
86.473
89.572
92.596
95.525
98.342
101.025
103.557
105.917
108.087
110.051
111.793
113.297
114.548
115.533
116.241
116.66
116.781
116.596
116.099
115.285
114.153
112.701
110.93
108.844
106.448
103.747
100.75
97.467
93.91
90.09
86.023
81.725
77.212
72.502
67.616
62.573
57.394
52.1
46.715
41.26
35.758
30.23
24.699
19.187
13.716
8.306
2.979
-2.248
-7.353
-12.321
-17.133
-21.776
-26.234
-30.495
-34.548
-38.384
-41.993
-45.369
-48.507
-51.403
-54.054
-56.46
-58.621
-60.54
-62.22
-63.667
-64.885
-65.882
-66.666
-67.245
-67.631
-67.832
-67.86
-67.727
-67.446
-67.029
-66.488
-65.839
-65.095
-64.27
-63.377
-62.43
-61.443
-60.429
-59.4
-58.37
-57.349
-56.349
-55.38
-54.452
-53.576
-52.758
-52.006
-51.327
-50.726
-50.208
-49.777
-49.434
-49.183
-49.023
-48.957
-48.982
-49.1
-49.308
-49.605
-49.986
-50.449
-50.989
-51.601
-52.279
-53.016
-53.804
-54.637
-55.505
-56.4
-57.314
-58.237
-59.16
-60.073
-60.968
-61.833
-62.659
-63.436
-64.155
-64.806
-65.38
-65.869
-66.265
-66.562
-66.754
-66.834
-66.798
-66.641
-66.359
-65.948
-65.406
-64.73
-63.92
-62.976
-61.897
-60.688
-59.353
-57.898
-56.33
-54.658
-52.889
-51.035
-49.104
-47.109
-45.059
-42.962
-40.829
-38.672
-36.504
-34.339
-32.19
-30.071
-27.996
-25.979
-24.031
-22.164
-20.384
-18.697
-17.108
-15.624
-14.256
-13.022
-11.936
-11.009
-10.246
-9.651
-9.22
-8.95
-8.825
-8.818
-8.91
-9.077
-9.301
-9.579
-9.899
-10.251
-10.626
-10.991
-11.32
-11.603
-11.837
-12.03
-12.207
-12.392
-12.623
-12.969
-13.497
-14.279
-15.387
-16.872
-18.774
-21.106
-23.884
-27.164
-30.974
-35.267
-39.895
-44.562
-48.966
-52.896
-56.126
-58.363
-59.366
-58.985
-57.406
-55.281
-53.287
-51.907
-51.597
-52.748
-55.719
-60.9
-67.25
-72.066
-72.937
-67.595
-56.578
-43.824
-30.568
-16.456
1.919
33.282
81.419
146.228
225.571
309.029
385.638
445.293
474.776
465.772
416.918
330.593
215.669
85.899
-47.236
-172.002
-275.375
-350.318
-394.279
-409.366
-405.59
-392.658
-374.916
-353.771
-327.024
-291.863
-249.777
-204.279
-158.747
-116.773
-80.548
-50.868
-28.238
-12.542
-2.959
1.566
1.914
-0.748
-4.908
-9.207
-12.342
-13.526
-12.759
-10.28
-6.337
-1.414
3.844
8.747
12.534
14.871
15.892
15.786
14.822
13.294
11.466
9.731
8.527
8.072
8.417
9.532
11.306
13.671
16.596
19.963
23.633
27.467
31.319
35.12
38.846
42.456
45.911
49.161
52.156
54.889
57.38
59.639
61.679
63.508
65.132
66.591
67.934
69.214
70.489
71.799
73.17
74.628
76.196
77.892
79.73
81.713
83.831
86.082
88.467
90.986
93.64
96.424
99.323
102.328
105.425
108.601
111.845
115.141
118.474
121.833
125.203
128.572
131.929
135.258
138.544
141.768
144.911
147.955
150.88
153.667
156.295
158.745
160.999
163.041
164.854
166.423
167.734
168.773
169.529
169.991
170.148
169.994
169.522
168.726
167.606
166.158
164.386
162.29
159.876
157.151
154.122
150.798
147.191
143.313
139.177
134.8
130.197
125.387
120.388
115.221
109.904
104.461
98.912
93.28
87.586
81.851
76.099
70.35
64.624
58.944
53.328
47.797
42.368
37.06
31.888
26.869
22.017
17.344
12.863
8.582
4.512
0.66
-2.969
-6.371
-9.542
-12.48
-15.186
-17.66
-19.905
-21.924
-23.722
-25.306
-26.681
-27.857
-28.843
-29.647
-30.282
-30.757
-31.085
-31.279
-31.35
-31.312
-31.178
-30.962
-30.677
-30.336
-29.954
-29.543
-29.115
-28.684
-28.26
-27.856
-27.48
-27.143
-26.853
-26.618
-26.446
-26.341
-26.311
-26.358
-26.488
-26.701
-27.001
-27.387
-27.859
-28.415
-29.052
-29.767
-30.556
-31.413
-32.332
-33.306
-34.329
-35.393
-36.488
-37.606
-38.737
-39.87
-40.997
-42.105
-43.185
-44.224
-45.214
-46.144
-47.006
-47.791
-48.491
-49.099
-49.608
-50.012
-50.306
-50.485
-50.546
-50.486
-50.303
-49.996
-49.569
-49.023
-48.365
-47.601
-46.739
-45.786
-44.752
-43.648
-42.483
-41.266
-40.007
-38.714
-37.401
-36.077
-34.758
-33.458
-32.191
-30.971
-29.812
-28.723
-27.715
-26.796
-25.968
-25.235
-24.602
-24.076
-23.675
-23.416
-23.309
-23.361
-23.575
-23.947
-24.473
-25.141
-25.928
-26.809
-27.762
-28.764
-29.808
-30.894
-32.018
-33.166
-34.306
-35.401
-36.433
-37.4
-38.313
-39.181
-40.016
-40.836
-41.687
-42.638
-43.767
-45.149
-46.834
-48.849
-51.206
-53.949
-57.192
-60.988
-65.268
-69.832
-74.315
-78.364
-81.74
-84.155
-85.186
-84.56
-82.298
-78.779
-74.966
-71.912
-70.378
-71.12
-74.839
-81.792
-91.669
-103.376
-114.737
-123.296
-126.713
-122.426
-108.092
-81.716
-42.968
5.729
60.796
118.135
175.515
234.921
297.073
358.748
412.573
442.936
434.36
379.62
277.95
140.378
-14.338
-168.864
-305.265
-409.717
-476.253
-504.485
-501.409
-478.697
-446.598
-410.738
-372.145
-328.949
-279.729
-226.768
-174.335
-126.968
-88.548
-60.388
-41.908
-31.857
-28.322
-29.306
-33.047
-37.642
-41.305
-42.749
-41.396
-37.343
-31.14
-23.554
-15.347
-7.315
-0.315
4.91
8.039
9.177
8.671
6.99
4.542
1.668
-1.231
-3.714
-5.491
-6.435
-6.527
-5.843
-4.442
-2.346
0.387
3.661
7.363
11.372
15.564
19.842
24.129
28.357
32.463
36.385
40.071
43.498
46.664
49.577
52.247
54.678
56.882
58.886
60.731
62.468
64.152
65.835
67.559
69.355
71.252
73.271
75.424
77.718
80.148
82.705
85.384
88.181
91.093
94.115
97.236
100.443
103.721
107.056
110.433
113.834
117.245
120.651
124.037
127.39
130.697
133.945
137.119
140.201
143.176
146.023
148.724
151.259
153.61
155.758
157.686
159.375
160.812
161.983
162.874
163.474
163.773
163.762
163.433
162.781
161.801
160.491
158.851
156.88
154.582
151.96
149.022
145.776
142.23
138.397
134.289
129.921
125.308
120.467
115.418
110.178
104.771
99.216
93.536
87.755
81.897
75.984
70.042
64.092
58.159
52.265
46.432
40.681
35.032
29.505
24.118
18.888
13.831
8.962
4.295
-0.158
-4.388
-8.383
-12.138
-15.645
-18.901
-21.903
-24.649
-27.14
-29.376
-31.363
-33.104
-34.605
-35.875
-36.921
-37.753
-38.382
-38.82
-39.08
-39.174
-39.118
-38.924
-38.609
-38.186
-37.671
-37.078
-36.422
-35.718
-34.98
-34.222
-33.458
-32.702
-31.965
-31.26
-30.598
-29.991
-29.447
-28.976
-28.586
-28.283
-28.072
-27.96
-27.948
-28.041
-28.239
-28.544
-28.955
-29.47
-30.088
-30.804
-31.615
-32.515
-33.498
-34.556
-35.682
-36.867
-38.103
-39.38
-40.689
-42.02
-43.364
-44.71
-46.046
-47.363
-48.65
-49.895
-51.087
-52.218
-53.274
-54.249
-55.132
-55.916
-56.594
-57.159
-57.606
-57.929
-58.126
-58.192
-58.125
-57.924
-57.589
-57.12
-56.52
-55.793
-54.946
-53.987
-52.923
-51.765
-50.522
-49.207
-47.831
-46.404
-44.937
-43.44
-41.924
-40.402
-38.885
-37.387
-35.923
-34.507
-33.153
-31.874
-30.68
-29.581
-28.584
-27.694
-26.913
-26.245
-25.697
-25.285
-25.023
-24.919
-24.979
-25.202
-25.583
-26.117
-26.789
-27.576
-28.452
-29.391
-30.367
-31.37
-32.399
-33.449
-34.507
-35.541
-36.52
-37.43
-38.272
-39.057
-39.797
-40.499
-41.187
-41.909
-42.739
-43.755
-45.03
-46.618
-48.544
-50.807
-53.434
-56.493
-60.008
-63.921
-68.051
-72.069
-75.692
-78.738
-80.989
-82.158
-82.017
-80.462
-77.766
-74.706
-72.051
-70.343
-70.134
-71.894
-75.946
-82.592
-90.6
-97.033
-99.409
-95.372
-85.271
-72.707
-58.479
-41.985
-19.701
16.575
69.432
137.456
216.488
295.272
364.819
417.394
444.11
439.121
396.612
314.1
193.396
43.462
-117.808
-270.558
-392.894
-470.509
-503.732
-499.85
-471.912
-432.028
-384.298
-331.349
-277.305
-226.229
-183.377
-150.909
-125.136
-102.339
-80.5
-59.887
-44.14
-35.447
-33.239
-35.632
-39.353
-41.963
-42.492
-40.651
-36.816
-31.485
-25.107
-18.236
-11.531
-5.71
-1.408
1.11
1.956
1.461
0.003
-2.097
-4.545
-7.008
-9.082
-10.483
-11.096
-10.915
-10.012
-8.45
-6.248
-3.445
-0.152
3.506
7.392
11.357
15.331
19.268
23.113
26.824
30.346
33.629
36.667
39.474
42.061
44.436
46.601
48.562
50.357
52.038
53.664
55.299
56.987
58.756
60.636
62.648
64.813
67.142
69.635
72.279
75.071
78.008
81.093
84.325
87.695
91.189
94.794
98.494
102.275
106.121
110.015
113.94
117.879
121.819
125.746
129.645
133.502
137.296
141.01
144.621
148.11
151.455
154.633
157.624
160.405
162.958
165.263
167.303
169.061
170.522
171.672
172.498
172.988
173.133
172.925
172.356
171.422
170.122
168.454
166.42
164.022
161.267
158.162
154.716
150.94
146.845
142.446
137.758
132.798
127.585
122.138
116.479
110.63
104.614
98.455
92.18
85.813
79.379
72.905
66.415
59.934
53.489
47.102
40.798
34.598
28.526
22.601
16.844
11.272
5.903
0.751
-4.17
-8.847
-13.271
-17.432
-21.325
-24.942
-28.282
-31.341
-34.119
-36.618
-38.839
-40.789
-42.472
-43.897
-45.071
-46.006
-46.713
-47.204
-47.495
-47.599
-47.532
-47.311
-46.952
-46.472
-45.889
-45.221
-44.484
-43.697
-42.877
-42.04
-41.202
-40.379
-39.585
-38.835
-38.142
-37.516
-36.969
-36.51
-36.147
-35.888
-35.739
-35.703
-35.786
-35.99
-36.314
-36.761
-37.327
-38.01
-38.807
-39.71
-40.714
-41.81
-42.989
-44.242
-45.556
-46.921
-48.325
-49.755
-51.197
-52.64
-54.068
-55.468
-56.826
-58.13
-59.365
-60.518
-61.578
-62.534
-63.374
-64.091
-64.677
-65.123
-65.424
-65.574
-65.57
-65.409
-65.088
-64.607
-63.966
-63.167
-62.215
-61.115
-59.876
-58.507
-57.02
-55.426
-53.738
-51.973
-50.144
-48.265
-46.35
-44.414
-42.469
-40.532
-38.618
-36.742
-34.921
-33.173
-31.513
-29.955
-28.512
-27.193
-26.008
-24.961
-24.055
-23.294
-22.684
-22.239
-21.973
-21.893
-22.004
-22.305
-22.789
-23.447
-24.263
-25.21
-26.259
-27.376
-28.532
-29.711
-30.907
-32.112
-33.311
-34.47
-35.555
-36.55
-37.453
-38.274
-39.024
-39.714
-40.373
-41.058
-41.848
-42.831
-44.09
-45.678
-47.613
-49.89
-52.518
-55.555
-59.04
-62.92
-67.031
-71.111
-74.917
-78.279
-80.997
-82.742
-83.18
-82.141
-79.782
-76.619
-73.22
-70.157
-68.058
-67.567
-69.487
-73.679
-78.333
-81.331
-80.364
-74.88
-68.219
-62.823
-58.833
-53.626
-37.569
-1.217
59.925
146.686
249.773
353.694
442.652
500.068
515.056
484.003
409.029
297.151
157.911
3.27
-153.232
-294.961
-404.717
-471.414
-493.045
-478.561
-444.009
-403.868
-365.6
-329.526
-291.704
-248.974
-202.667
-156.805
-116.021
-83.853
-61.028
-46.491
-38.659
-35.701
-36.01
-38.204
-40.774
-42.361
-42.024
-39.454
-34.92
-28.953
-22.157
-15.1
-8.386
-2.688
1.403
3.662
4.271
3.613
2.089
0.019
-2.332
-4.648
-6.527
-7.685
-8.013
-7.51
-6.254
-4.314
-1.707
1.523
5.257
9.363
13.692
18.088
22.476
26.805
31.016
35.061
38.88
42.419
45.669
48.643
51.349
53.795
55.984
57.921
59.646
61.214
62.687
64.13
65.587
67.087
68.662
70.336
72.13
74.059
76.122
78.312
80.627
83.07
85.643
88.35
91.186
94.139
97.199
100.355
103.595
106.909
110.282
113.7
117.151
120.625
124.11
127.595
131.066
134.507
137.898
141.222
144.458
147.586
150.584
153.43
156.103
158.584
160.854
162.893
164.685
166.212
167.459
168.413
169.059
169.387
169.386
169.049
168.367
167.338
165.957
164.224
162.14
159.707
156.93
153.817
150.375
146.615
142.549
138.189
133.552
128.655
123.515
118.153
112.59
106.847
100.949
94.919
88.782
82.561
76.283
69.97
63.649
57.342
51.074
44.867
38.743
32.723
26.828
21.077
15.487
10.075
4.857
-0.155
-4.947
-9.509
-13.832
-17.909
-21.733
-25.3
-28.606
-31.651
-34.435
-36.959
-39.227
-41.244
-43.014
-44.546
-45.848
-46.929
-47.801
-48.473
-48.959
-49.271
-49.421
-49.425
-49.295
-49.047
-48.693
-48.25
-47.731
-47.15
-46.521
-45.859
-45.176
-44.484
-43.798
-43.127
-42.483
-41.877
-41.318
-40.816
-40.379
-40.014
-39.728
-39.527
-39.414
-39.394
-39.47
-39.643
-39.914
-40.283
-40.749
-41.311
-41.967
-42.713
-43.545
-44.459
-45.449
-46.509
-47.631
-48.807
-50.029
-51.288
-52.574
-53.878
-55.189
-56.498
-57.793
-59.064
-60.3
-61.489
-62.62
-63.681
-64.663
-65.554
-66.343
-67.021
-67.58
-68.011
-68.307
-68.463
-68.472
-68.33
-68.033
-67.579
-66.965
-66.19
-65.254
-64.159
-62.907
-61.504
-59.956
-58.273
-56.464
-54.541
-52.515
-50.4
-48.209
-45.957
-43.656
-41.318
-38.958
-36.59
-34.232
-31.899
-29.608
-27.374
-25.215
-23.144
-21.175
-19.318
-17.58
-15.968
-14.487
-13.146
-11.955
-10.935
-10.101
-9.463
-9.03
-8.805
-8.79
-8.981
-9.368
-9.925
-10.632
-11.465
-12.403
-13.439
-14.557
-15.739
-16.96
-18.182
-19.361
-20.481
-21.534
-22.513
-23.43
-24.291
-25.107
-25.942
-26.873
-27.975
-29.339
-31.02
-33.039
-35.461
-38.368
-41.804
-45.795
-50.202
-54.72
-59.095
-63.116
-66.547
-69.153
-70.69
-70.968
-70.238
-69.181
-68.476
-68.685
-70.32
-73.854
-79.703
-88.295
-98.621
-107.938
-113.712
-113.472
-106.731
-96.506
-84.445
-70.204
-51.768
-21.742
26.354
94.465
182.482
282.994
383.677
471.743
532.473
552.743
524.655
446.458
322.56
165.51
-6.728
-175.83
-322.383
-432.381
-501.106
-529.677
-526.67
-503.163
-465.914
-420.315
-370.307
-317.632
-266.727
-220.591
-178.183
-139.727
-104.324
-72.117
-46.71
-29.567
-20.509
-18.351
-20.11
-23.401
-26.849
-29.282
-29.859
-28.299
-24.722
-19.508
-13.212
-6.477
0.14
6.025
10.451
13.175
14.361
14.263
13.269
11.728
9.891
8.131
6.901
6.444
6.839
8.079
10.046
12.666
15.907
19.672
23.822
28.22
32.723
37.219
41.656
45.983
50.141
54.073
57.722
61.058
64.087
66.82
69.272
71.452
73.376
75.074
76.594
77.99
79.319
80.636
81.983
83.392
84.892
86.508
88.259
90.154
92.194
94.373
96.691
99.147
101.742
104.472
107.33
110.304
113.383
116.555
119.806
123.123
126.492
129.9
133.334
136.782
140.23
143.667
147.077
150.443
153.747
156.968
160.086
163.08
165.929
168.613
171.11
173.402
175.47
177.298
178.869
180.168
181.182
181.898
182.305
182.394
182.156
181.586
180.679
179.433
177.847
175.922
173.66
171.068
168.151
164.917
161.375
157.536
153.413
149.02
144.373
139.488
134.384
129.082
123.602
117.965
112.195
106.315
100.347
94.315
88.241
82.149
76.06
69.998
63.982
58.034
52.173
46.419
40.789
35.3
29.969
24.808
19.832
15.053
10.481
6.124
1.992
-1.909
-5.574
-8.999
-12.181
-15.12
-17.815
-20.27
-22.487
-24.47
-26.228
-27.765
-29.091
-30.215
-31.147
-31.897
-32.476
-32.896
-33.168
-33.306
-33.322
-33.228
-33.038
-32.764
-32.421
-32.019
-31.573
-31.094
-30.594
-30.085
-29.577
-29.082
-28.609
-28.169
-27.772
-27.424
-27.136
-26.912
-26.76
-26.685
-26.689
-26.776
-26.947
-27.205
-27.548
-27.977
-28.49
-29.086
-29.763
-30.517
-31.344
-32.24
-33.2
-34.218
-35.287
-36.401
-37.551
-38.729
-39.927
-41.138
-42.352
-43.56
-44.753
-45.922
-47.056
-48.146
-49.181
-50.152
-51.049
-51.863
-52.585
-53.209
-53.727
-54.136
-54.429
-54.602
-54.652
-54.578
-54.376
-54.046
-53.587
-52.999
-52.283
-51.443
-50.481
-49.405
-48.22
-46.935
-45.561
-44.108
-42.587
-41.009
-39.386
-37.729
-36.05
-34.359
-32.668
-30.989
-29.336
-27.723
-26.164
-24.674
-23.264
-21.944
-20.723
-19.608
-18.605
-17.714
-16.937
-16.276
-15.743
-15.355
-15.128
-15.069
-15.181
-15.463
-15.911
-16.521
-17.276
-18.15
-19.113
-20.136
-21.204
-22.313
-23.458
-24.629
-25.797
-26.916
-27.954
-28.899
-29.754
-30.52
-31.204
-31.812
-32.372
-32.967
-33.686
-34.612
-35.82
-37.347
-39.203
-41.423
-44.098
-47.294
-50.994
-55.044
-59.127
-62.939
-66.286
-68.951
-70.619
-71.003
-69.972
-67.785
-65.255
-63.242
-62.339
-63.15
-66.293
-72.176
-80.977
-91.395
-100.514
-105.708
-105.142
-99.192
-89.633
-76.076
-56.212
-25.811
19.247
78.542
148.583
224.161
298.647
365.976
418.704
447.555
443.172
398.837
313.663
191.082
41.637
-118.203
-270.795
-394.947
-475.819
-511.69
-509.114
-484.285
-453.465
-422.839
-392.908
-359.722
-318.589
-270.705
-220.164
-171.392
-128.9
-94.765
-69.173
-51.685
-41.208
-36.408
-36.063
-38.846
-43.157
-47.456
-50.415
-51.298
-50.051
-46.936
-42.345
-36.785
-30.894
-25.399
-21.078
-18.277
-16.864
-16.632
-17.276
-18.497
-20.05
-21.544
-22.509
-22.695
-22.039
-20.56
-18.38
-15.573
-12.161
-8.263
-4.034
0.369
4.777
9.105
13.329
17.405
21.294
24.946
28.306
31.362
34.138
36.644
38.891
40.887
42.634
44.172
45.554
46.839
48.094
49.361
50.669
52.049
53.526
55.119
56.846
58.709
60.699
62.815
65.058
67.431
69.938
72.573
75.324
78.181
81.131
84.162
87.263
90.419
93.615
96.838
100.077
103.319
106.554
109.767
112.941
116.059
119.102
122.051
124.886
127.587
130.132
132.502
134.678
136.643
138.38
139.872
141.104
142.063
142.735
143.11
143.177
142.928
142.357
141.458
140.228
138.667
136.776
134.556
132.014
129.154
125.986
122.519
118.764
114.734
110.443
105.907
101.144
96.171
91.008
85.676
80.197
74.594
68.888
63.103
57.263
51.39
45.508
39.638
33.804
28.027
22.327
16.726
11.241
5.891
0.693
-4.337
-9.185
-13.838
-18.284
-22.515
-26.52
-30.293
-33.829
-37.123
-40.172
-42.975
-45.531
-47.843
-49.913
-51.745
-53.344
-54.717
-55.871
-56.816
-57.56
-58.113
-58.488
-58.694
-58.744
-58.651
-58.427
-58.086
-57.64
-57.102
-56.486
-55.805
-55.072
-54.299
-53.499
-52.682
-51.86
-51.044
-50.244
-49.468
-48.727
-48.028
-47.378
-46.786
-46.257
-45.797
-45.411
-45.102
-44.875
-44.731
-44.672
-44.699
-44.813
-45.013
-45.298
-45.666
-46.117
-46.646
-47.25
-47.925
-48.667
-49.469
-50.327
-51.232
-52.178
-53.159
-54.165
-55.191
-56.226
-57.265
-58.298
-59.317
-60.314
-61.281
-62.207
-63.086
-63.907
-64.663
-65.346
-65.947
-66.46
-66.876
-67.192
-67.4
-67.497
-67.477
-67.337
-67.073
-66.683
-66.167
-65.523
-64.752
-63.855
-62.837
-61.701
-60.456
-59.11
-57.67
-56.146
-54.548
-52.889
-51.179
-49.428
-47.645
-45.839
-44.024
-42.211
-40.414
-38.645
-36.92
-35.253
-33.658
-32.149
-30.735
-29.424
-28.219
-27.128
-26.156
-25.309
-24.603
-24.048
-23.654
-23.429
-23.378
-23.496
-23.774
-24.194
-24.729
-25.361
-26.068
-26.831
-27.637
-28.472
-29.329
-30.202
-31.069
-31.908
-32.697
-33.419
-34.075
-34.695
-35.302
-35.938
-36.66
-37.497
-38.505
-39.747
-41.275
-43.151
-45.404
-48.024
-51.043
-54.556
-58.587
-63.072
-67.798
-72.33
-76.289
-79.432
-81.431
-81.901
-80.638
-77.672
-73.433
-69.009
-65.426
-63.251
-63.266
-66.265
-72.333
-81.205
-91.264
-98.899
-101.772
-98.723
-89.205
-74.534
-53.515
-23.089
18.986
74.919
142.831
217.513
292.674
360.563
414.089
446.952
454.441
432.235
377.775
291.13
172.628
30.798
-119.382
-259.431
-366.319
-428.768
-448.443
-436.087
-411.447
-386.278
-362.791
-338.781
-307.455
-267.244
-221.98
-175.736
-133.287
-97.442
-68.606
-46.871
-31.784
-22.312
-17.309
-15.822
-16.755
-18.797
-20.8
-21.653
-20.726
-18.141
-14.263
-9.389
-3.957
1.495
6.418
10.138
12.368
13.31
13.205
12.338
11.001
9.413
7.911
6.922
6.678
7.234
8.577
10.598
13.23
16.456
20.171
24.233
28.494
32.792
37.038
41.203
45.245
49.127
52.803
56.221
59.372
62.278
64.95
67.401
69.637
71.662
73.512
75.237
76.894
78.544
80.231
81.982
83.824
85.781
87.868
90.103
92.486
95.004
97.657
100.443
103.362
106.419
109.605
112.908
116.316
119.815
123.391
127.032
130.72
134.439
138.174
141.912
145.637
149.338
152.997
156.599
160.123
163.55
166.86
170.033
173.048
175.883
178.521
180.941
183.126
185.06
186.727
188.113
189.204
189.988
190.454
190.592
190.394
189.853
188.966
187.729
186.142
184.205
181.921
179.295
176.335
173.049
169.446
165.539
161.342
156.867
152.134
147.158
141.958
136.555
130.97
125.224
119.339
113.339
107.248
101.087
94.88
88.65
82.419
76.211
70.046
63.946
57.932
52.022
46.237
40.594
35.11
29.801
24.68
19.761
15.055
10.572
6.321
2.309
-1.459
-4.978
-8.247
-11.263
-14.027
-16.54
-18.807
-20.83
-22.615
-24.169
-25.5
-26.615
-27.525
-28.239
-28.768
-29.124
-29.318
-29.363
-29.27
-29.053
-28.725
-28.299
-27.788
-27.205
-26.564
-25.878
-25.159
-24.421
-23.675
-22.932
-22.204
-21.501
-20.834
-20.211
-19.64
-19.131
-18.689
-18.322
-18.036
-17.834
-17.721
-17.7
-17.773
-17.942
-18.208
-18.571
-19.03
-19.585
-20.234
-20.975
-21.806
-22.724
-23.725
-24.804
-25.958
-27.179
-28.462
-29.8
-31.185
-32.61
-34.068
-35.549
-37.047
-38.552
-40.057
-41.551
-43.027
-44.476
-45.888
-47.255
-48.568
-49.82
-51.004
-52.112
-53.139
-54.081
-54.932
-55.688
-56.345
-56.901
-57.352
-57.695
-57.93
-58.054
-58.068
-57.974
-57.774
-57.472
-57.076
-56.591
-56.025
-55.388
-54.687
-53.933
-53.133
-52.295
-51.427
-50.539
-49.641
-48.744
-47.858
-46.994
-46.162
-45.374
-44.638
-43.962
-43.35
-42.807
-42.334
-41.936
-41.619
-41.392
-41.268
-41.263
-41.382
-41.634
-42.024
-42.548
-43.204
-43.977
-44.841
-45.774
-46.752
-47.752
-48.762
-49.766
-50.743
-51.676
-52.533
-53.28
-53.913
-54.424
-54.808
-55.078
-55.239
-55.326
-55.424
-55.623
-56.016
-56.702
-57.729
-59.161
-61.098
-63.554
-66.523
-69.953
-73.621
-77.322
-80.936
-84.248
-87.038
-89.211
-90.605
-91.257
-91.618
-92.06
-92.875
-94.405
-96.886
-100.543
-105.708
-112.397
-119.158
-123.675
-123.959
-117.942
-106.452
-93.281
-79.527
-65.475
-47.925
-17.393
30.576
97.109
179.829
266.391
345.788
407.593
440.548
440.13
403.505
331.257
228.866
103.463
-34.407
-172.188
-296.133
-393.576
-456.336
-482.657
-477.059
-447.819
-405.003
-356.928
-310.882
-272.039
-240.61
-214.689
-189.51
-160.789
-129.163
-97.682
-70.906
-52.172
-41.391
-36.765
-36.16
-37.889
-40.795
-43.958
-46.428
-47.523
-47.124
-45.371
-42.421
-38.591
-34.338
-30.211
-26.918
-24.782
-23.696
-23.512
-23.992
-24.905
-26.062
-27.118
-27.65
-27.436
-26.421
-24.635
-22.192
-19.16
-15.582
-11.581
-7.319
-2.96
1.37
5.625
9.791
13.849
17.764
21.487
24.981
28.251
31.309
34.166
36.831
39.304
41.605
43.782
45.891
47.995
50.141
52.353
54.653
57.059
59.587
62.253
65.061
68.003
71.074
74.273
77.6
81.058
84.643
88.34
92.134
96.012
99.957
103.955
107.993
112.052
116.116
120.172
124.205
128.204
132.154
136.035
139.83
143.519
147.082
150.499
153.748
156.81
159.663
162.289
164.67
166.79
168.631
170.179
171.419
172.34
172.929
173.178
173.077
172.619
171.802
170.621
169.077
167.172
164.908
162.292
159.331
156.033
152.411
148.476
144.242
139.724
134.939
129.905
124.641
119.169
113.51
107.685
101.72
95.636
89.46
83.215
76.924
70.613
64.305
58.024
51.793
45.634
39.569
33.618
27.803
22.141
16.65
11.345
6.242
1.353
-3.31
-7.737
-11.92
-15.852
-19.527
-22.94
-26.091
-28.976
-31.597
-33.956
-36.054
-37.898
-39.491
-40.842
-41.957
-42.845
-43.517
-43.982
-44.252
-44.338
-44.253
-44.009
-43.62
-43.1
-42.461
-41.718
-40.884
-39.973
-38.999
-37.973
-36.909
-35.818
-34.712
-33.603
-32.501
-31.415
-30.356
-29.332
-28.352
-27.424
-26.553
-25.747
-25.01
-24.348
-23.765
-23.263
-22.846
-22.517
-22.276
-22.126
-22.065
-22.095
-22.215
-22.422
-22.716
-23.093
-23.549
-24.083
-24.689
-25.363
-26.102
-26.899
-27.751
-28.652
-29.597
-30.579
-31.593
-32.633
-33.691
-34.76
-35.835
-36.907
-37.969
-39.014
-40.036
-41.028
-41.983
-42.894
-43.754
-44.556
-45.294
-45.961
-46.55
-47.057
-47.474
-47.798
-48.025
-48.151
-48.173
-48.09
-47.9
-47.602
-47.196
-46.681
-46.059
-45.33
-44.497
-43.563
-42.533
-41.411
-40.204
-38.922
-37.573
-36.166
-34.713
-33.225
-31.71
-30.18
-28.644
-27.112
-25.591
-24.093
-22.628
-21.208
-19.845
-18.552
-17.339
-16.215
-15.188
-14.265
-13.45
-12.744
-12.147
-11.66
-11.289
-11.049
-10.953
-11.006
-11.212
-11.568
-12.068
-12.705
-13.464
-14.32
-15.245
-16.214
-17.207
-18.218
-19.245
-20.281
-21.306
-22.283
-23.18
-23.99
-24.711
-25.358
-25.942
-26.477
-26.99
-27.539
-28.194
-29.023
-30.07
-31.359
-32.91
-34.741
-36.917
-39.562
-42.68
-46.194
-49.975
-53.722
-57.131
-59.979
-61.889
-62.382
-61.314
-58.684
-54.629
-50.047
-45.97
-43.075
-42.417
-44.262
-47.435
-51.943
-58.073
-66.01
-77.421
-89.648
-96.109
-90.266
-65.264
-21.637
33.617
93.651
152.712
211.211
272.194
334.541
390.911
428.532
435.595
405.104
339.187
245.358
129.656
0.503
-133.721
-262.706
-369.218
-440.335
-472.129
-467.977
-440.57
-401.391
-353.801
-299.059
-237.674
-174.112
-118.504
-78.192
-54.677
-43.161
-35.73
-27.466
-18.264
-11.516
-9.729
-12.702
-17.951
-21.908
-22.95
-21.224
-17.322
-12.183
-6.425
-0.412
5.033
9.049
11.318
11.899
11.142
9.476
7.185
4.497
1.757
-0.594
-2.259
-3.113
-3.156
-2.483
-1.154
0.812
3.375
6.423
9.83
13.454
17.144
20.831
24.467
27.999
31.386
34.577
37.521
40.211
42.661
44.878
46.867
48.63
50.167
51.512
52.716
53.836
54.938
56.066
57.251
58.522
59.904
61.418
63.079
64.888
66.835
68.918
71.141
73.505
76.017
78.671
81.457
84.364
87.381
90.497
93.699
96.973
100.304
103.679
107.087
110.515
113.952
117.383
120.793
124.163
127.474
130.705
133.836
136.845
139.709
142.407
144.918
147.223
149.304
151.141
152.717
154.018
155.027
155.731
156.118
156.177
155.899
155.277
154.307
152.984
151.309
149.282
146.906
144.187
141.132
137.75
134.05
130.046
125.75
121.179
116.349
111.28
105.99
100.502
94.837
89.02
83.073
77.022
70.891
64.704
58.486
52.261
46.054
39.887
33.783
27.765
21.853
16.067
10.426
4.948
-0.352
-5.461
-10.364
-15.051
-19.513
-23.741
-27.73
-31.476
-34.973
-38.223
-41.223
-43.975
-46.484
-48.752
-50.785
-52.591
-54.176
-55.55
-56.723
-57.705
-58.507
-59.142
-59.62
-59.954
-60.159
-60.245
-60.227
-60.117
-59.928
-59.672
-59.361
-59.006
-58.617
-58.205
-57.779
-57.348
-56.918
-56.498
-56.094
-55.711
-55.354
-55.028
-54.735
-54.479
-54.261
-54.082
-53.943
-53.844
-53.785
-53.764
-53.781
-53.832
-53.916
-54.031
-54.174
-54.34
-54.527
-54.73
-54.946
-55.169
-55.397
-55.624
-55.847
-56.062
-56.264
-56.451
-56.618
-56.763
-56.881
-56.969
-57.023
-57.04
-57.018
-56.951
-56.838
-56.676
-56.462
-56.195
-55.872
-55.491
-55.049
-54.545
-53.978
-53.344
-52.644
-51.874
-51.035
-50.125
-49.146
-48.097
-46.98
-45.795
-44.546
-43.233
-41.859
-40.428
-38.94
-37.401
-35.813
-34.181
-32.51
-30.808
-29.081
-27.338
-25.59
-23.846
-22.115
-20.408
-18.734
-17.102
-15.52
-13.995
-12.534
-11.145
-9.837
-8.619
-7.499
-6.487
-5.59
-4.814
-4.163
-3.644
-3.255
-2.996
-2.864
-2.858
-2.982
-3.251
-3.673
-4.252
-4.987
-5.875
-6.91
-8.081
-9.372
-10.751
-12.186
-13.647
-15.11
-16.565
-18.003
-19.413
-20.769
-22.031
-23.17
-24.177
-25.058
-25.816
-26.459
-26.995
-27.454
-27.912
-28.462
-29.183
-30.15
-31.414
-32.992
-34.924
-37.289
-40.128
-43.417
-47.038
-50.732
-54.222
-57.309
-59.771
-61.328
-61.737
-60.861
-58.84
-56.23
-53.776
-52.112
-51.72
-53.093
-56.653
-62.576
-70.571
-78.806
-84.009
-83.352
-75.303
-61.057
-44.251
-27.02
-7.592
20.168
64.403
130.243
214.63
306.325
390.013
449.643
476.016
466.457
421.102
344.588
239.129
108.427
-35.963
-180.251
-304.662
-390.946
-435.078
-441.678
-423.422
-396.719
-367.392
-334.997
-299.108
-256.445
-209.851
-166.211
-126.903
-94.116
-68.293
-46.74
-30.721
-20.82
-15.979
-16.12
-19.278
-23.158
-26.658
-28.632
-28.646
-26.977
-23.854
-19.599
-14.707
-9.696
-5.12
-1.574
0.718
1.896
2.145
1.695
0.783
-0.406
-1.576
-2.319
-2.408
-1.783
-0.447
1.509
4.027
7.085
10.582
14.349
18.217
22.043
25.761
29.363
32.839
36.164
39.306
42.227
44.925
47.417
49.709
51.805
53.704
55.414
56.972
58.44
59.887
61.368
62.917
64.558
66.312
68.197
70.23
72.419
74.76
77.247
79.88
82.664
85.603
88.698
91.942
95.32
98.818
102.423
106.121
109.897
113.736
117.621
121.534
125.464
129.398
133.319
137.211
141.052
144.822
148.5
152.065
155.493
158.763
161.852
164.738
167.402
169.824
171.985
173.868
175.456
176.735
177.69
178.31
178.585
178.504
178.063
177.255
176.077
174.531
172.615
170.335
167.694
164.702
161.367
157.7
153.714
149.423
144.843
139.991
134.885
129.546
123.994
118.252
112.342
106.289
100.118
93.852
87.517
81.138
74.738
68.343
61.976
55.66
49.418
43.271
37.24
31.345
25.603
20.031
14.644
9.457
4.481
-0.273
-4.795
-9.079
-13.117
-16.906
-20.443
-23.726
-26.755
-29.531
-32.056
-34.336
-36.375
-38.178
-39.755
-41.112
-42.26
-43.208
-43.968
-44.551
-44.969
-45.234
-45.359
-45.358
-45.243
-45.027
-44.722
-44.342
-43.899
-43.403
-42.867
-42.301
-41.714
-41.118
-40.52
-39.929
-39.352
-38.796
-38.266
-37.77
-37.309
-36.89
-36.515
-36.187
-35.907
-35.679
-35.503
-35.379
-35.309
-35.292
-35.327
-35.413
-35.549
-35.734
-35.965
-36.24
-36.558
-36.916
-37.312
-37.743
-38.208
-38.704
-39.229
-39.782
-40.359
-40.958
-41.578
-42.217
-42.872
-43.542
-44.226
-44.922
-45.629
-46.346
-47.071
-47.802
-48.539
-49.279
-50.019
-50.757
-51.491
-52.218
-52.935
-53.639
-54.326
-54.995
-55.641
-56.26
-56.85
-57.404
-57.92
-58.393
-58.818
-59.19
-59.505
-59.758
-59.946
-60.066
-60.114
-60.087
-59.983
-59.798
-59.53
-59.178
-58.74
-58.215
-57.602
-56.901
-56.113
-55.241
-54.29
-53.265
-52.172
-51.018
-49.811
-48.559
-47.27
-45.954
-44.618
-43.268
-41.912
-40.56
-39.221
-37.906
-36.626
-35.393
-34.217
-33.108
-32.073
-31.119
-30.252
-29.47
-28.776
-28.174
-27.668
-27.275
-27.01
-26.881
-26.897
-27.06
-27.364
-27.807
-28.375
-29.043
-29.792
-30.6
-31.447
-32.331
-33.245
-34.181
-35.13
-36.058
-36.93
-37.729
-38.444
-39.08
-39.658
-40.2
-40.738
-41.329
-42.03
-42.916
-44.065
-45.525
-47.331
-49.492
-52.02
-55.017
-58.56
-62.608
-66.996
-71.41
-75.502
-79.05
-81.807
-83.357
-83.392
-81.851
-79.069
-75.885
-73.151
-71.626
-72.134
-75.492
-82.445
-92.279
-102.478
-110.523
-113.842
-112.766
-110.883
-108.093
-102.263
-87.567
-53.279
3.857
82.261
176.467
273.111
362.622
435.278
479.812
490.837
462.013
392.904
290.094
159.182
11.7
-139.944
-283.725
-402.603
-485.066
-527.092
-530.766
-506.483
-464.823
-412.392
-354.723
-296.447
-241.832
-195.351
-158.122
-127.051
-99.149
-72.975
-49.516
-32.373
-23.365
-21.61
-25.045
-30.337
-35.06
-38.24
-39.138
-37.679
-34.234
-29.152
-22.963
-16.431
-10.208
-4.862
-0.993
1.261
2.134
1.867
0.803
-0.708
-2.412
-3.958
-4.949
-5.202
-4.675
-3.389
-1.453
1.071
4.155
7.69
11.537
15.555
19.591
23.566
27.451
31.206
34.79
38.153
41.241
44.045
46.58
48.858
50.888
52.676
54.231
55.592
56.814
57.957
59.085
60.24
61.453
62.754
64.167
65.713
67.409
69.258
71.254
73.397
75.689
78.134
80.736
83.489
86.382
89.404
92.545
95.791
99.133
102.555
106.043
109.586
113.171
116.786
120.419
124.055
127.676
131.264
134.799
138.26
141.624
144.871
147.976
150.917
153.674
156.226
158.553
160.636
162.456
163.997
165.242
166.178
166.79
167.068
167.002
166.584
165.81
164.674
163.176
161.315
159.095
156.52
153.597
150.333
146.739
142.825
138.606
134.097
129.315
124.278
119.006
113.52
107.844
101.999
96.012
89.907
83.708
77.442
71.134
64.809
58.492
52.209
45.983
39.836
33.793
27.874
22.099
16.486
11.054
5.818
0.792
-4.012
-8.582
-12.909
-16.986
-20.806
-24.365
-27.661
-30.692
-33.459
-35.963
-38.208
-40.199
-41.941
-43.442
-44.71
-45.755
-46.587
-47.218
-47.659
-47.923
-48.023
-47.973
-47.787
-47.478
-47.061
-46.55
-45.958
-45.299
-44.586
-43.831
-43.047
-42.244
-41.434
-40.626
-39.83
-39.053
-38.304
-37.59
-36.916
-36.287
-35.71
-35.187
-34.724
-34.321
-33.983
-33.711
-33.506
-33.369
-33.301
-33.302
-33.371
-33.508
-33.712
-33.982
-34.317
-34.714
-35.171
-35.687
-36.259
-36.884
-37.56
-38.283
-39.051
-39.861
-40.71
-41.595
-42.512
-43.46
-44.435
-45.434
-46.454
-47.491
-48.542
-49.602
-50.668
-51.734
-52.796
-53.849
-54.888
-55.906
-56.898
-57.859
-58.781
-59.659
-60.484
-61.251
-61.953
-62.581
-63.13
-63.593
-63.963
-64.234
-64.401
-64.459
-64.405
-64.233
-63.941
-63.527
-62.987
-62.322
-61.53
-60.611
-59.568
-58.401
-57.114
-55.714
-54.207
-52.601
-50.903
-49.125
-47.277
-45.37
-43.417
-41.428
-39.415
-37.389
-35.363
-33.351
-31.367
-29.426
-27.544
-25.736
-24.016
-22.396
-20.89
-19.504
-18.243
-17.113
-16.118
-15.265
-14.569
-14.039
-13.684
-13.51
-13.52
-13.71
-14.072
-14.593
-15.248
-16.016
-16.878
-17.816
-18.821
-19.885
-20.999
-22.151
-23.317
-24.466
-25.582
-26.65
-27.664
-28.645
-29.611
-30.596
-31.665
-32.861
-34.233
-35.836
-37.712
-39.893
-42.401
-45.229
-48.388
-51.968
-55.994
-60.384
-64.958
-69.379
-73.318
-76.552
-78.8
-79.627
-78.748
-76.199
-72.372
-68.139
-64.359
-61.678
-60.859
-62.766
-68.177
-76.411
-84.994
-91.162
-92.073
-87.6
-81.315
-74.522
-66.526
-54.137
-27.646
19.805
90.042
182.798
288.056
391.241
478.134
532.559
542.514
502.724
413.469
280.058
115.208
-62.406
-232.994
-374.257
-471.022
-521.699
-532.401
-516.555
-486.47
-446.756
-398.801
-344.179
-287.908
-236.691
-195.877
-165.623
-140.227
-115.606
-90.105
-65.03
-45.322
-32.845
-26.73
-25.486
-25.839
-25.804
-24.925
-22.509
-18.54
-13.409
-7.257
-0.458
6.321
12.609
17.925
21.684
23.773
24.374
23.689
22.1
19.981
17.604
15.356
13.633
12.63
12.436
13.06
14.417
16.465
19.169
22.43
26.143
30.189
34.448
38.828
43.241
47.602
51.838
55.872
59.647
63.134
66.32
69.205
71.804
74.128
76.196
78.044
79.705
81.223
82.646
84.022
85.403
86.833
88.346
89.97
91.726
93.626
95.677
97.88
100.228
102.717
105.344
108.102
110.985
113.987
117.095
120.297
123.579
126.924
130.319
133.75
137.205
140.667
144.123
147.558
150.959
154.311
157.595
160.792
163.882
166.845
169.661
172.31
174.77
177.022
179.048
180.83
182.352
183.598
184.555
185.209
185.551
185.569
185.256
184.606
183.616
182.281
180.603
178.582
176.221
173.526
170.504
167.162
163.511
159.564
155.333
150.833
146.082
141.096
135.896
130.501
124.933
119.214
113.367
107.415
101.382
95.292
89.17
83.038
76.92
70.839
64.816
58.874
53.032
47.308
41.721
36.288
31.022
25.938
21.048
16.363
11.892
7.643
3.621
-0.167
-3.72
-7.036
-10.113
-12.953
-15.559
-17.933
-20.081
-22.009
-23.724
-25.233
-26.546
-27.672
-28.623
-29.409
-30.043
-30.537
-30.902
-31.152
-31.299
-31.356
-31.333
-31.243
-31.098
-30.907
-30.682
-30.432
-30.166
-29.892
-29.619
-29.353
-29.102
-28.871
-28.666
-28.492
-28.353
-28.253
-28.195
-28.184
-28.221
-28.309
-28.448
-28.642
-28.889
-29.19
-29.546
-29.955
-30.417
-30.93
-31.494
-32.106
-32.766
-33.472
-34.221
-35.012
-35.842
-36.71
-37.614
-38.551
-39.519
-40.517
-41.542
-42.593
-43.665
-44.758
-45.867
-46.99
-48.122
-49.259
-50.395
-51.526
-52.646
-53.75
-54.831
-55.883
-56.902
-57.879
-58.809
-59.685
-60.5
-61.248
-61.922
-62.516
-63.022
-63.436
-63.75
-63.961
-64.063
-64.053
-63.926
-63.678
-63.308
-62.812
-62.189
-61.437
-60.558
-59.55
-58.417
-57.161
-55.79
-54.31
-52.73
-51.059
-49.309
-47.49
-45.614
-43.695
-41.742
-39.766
-37.778
-35.791
-33.818
-31.873
-29.969
-28.12
-26.342
-24.647
-23.044
-21.545
-20.156
-18.878
-17.717
-16.676
-15.763
-14.995
-14.387
-13.948
-13.686
-13.603
-13.694
-13.958
-14.377
-14.926
-15.584
-16.325
-17.13
-17.994
-18.91
-19.867
-20.854
-21.836
-22.779
-23.666
-24.489
-25.249
-25.967
-26.66
-27.363
-28.141
-29.063
-30.203
-31.63
-33.393
-35.53
-38.061
-41.011
-44.458
-48.45
-52.947
-57.798
-62.695
-67.292
-71.325
-74.496
-76.437
-76.867
-75.668
-73.108
-70.003
-67.281
-65.705
-66.044
-68.957
-74.906
-84.26
-95.844
-106.67
-113.683
-113.624
-106.171
-94.437
-79.969
-63.818
-42.279
-6.119
50.178
129.791
228.432
331.9
425.529
493.143
523.13
510.605
453.224
354.368
217.283
50.416
-129.81
-305.317
-450.572
-546.406
-588.069
-578.332
-535.316
-479.847
-424.664
-380.718
-347.807
-319.548
-291.892
-258.236
-217.33
-173.377
-130.327
-93.945
-67.136
-49.054
-38.127
-31.929
-28.863
-28.039
-28.479
-29.245
-29.214
-27.756
-24.873
-20.679
-15.441
-9.655
-3.771
1.577
5.64
8.185
9.321
9.257
8.344
6.908
5.231
3.706
2.769
2.642
3.391
4.996
7.342
10.348
13.954
18.056
22.513
27.193
31.966
36.717
41.38
45.892
50.178
54.184
57.867
61.202
64.201
66.883
69.266
71.372
73.231
74.874
76.347
77.702
78.988
80.264
81.574
82.954
84.434
86.038
87.782
89.678
91.727
93.921
96.258
98.735
101.346
104.091
106.962
109.947
113.036
116.215
119.47
122.789
126.158
129.564
132.992
136.43
139.862
143.277
146.659
149.992
153.257
156.433
159.501
162.44
165.23
167.851
170.282
172.503
174.498
176.249
177.741
178.958
179.886
180.514
180.829
180.824
180.489
179.819
178.809
177.456
175.76
173.722
171.345
168.634
165.595
162.237
158.569
154.603
150.352
145.831
141.056
136.045
130.815
125.386
119.78
114.018
108.123
102.116
96.021
89.862
83.661
77.441
71.225
65.034
58.89
52.813
46.824
40.942
35.183
29.567
24.107
18.82
13.717
8.811
4.111
-0.372
-4.633
-8.665
-12.464
-16.027
-19.352
-22.439
-25.29
-27.905
-30.291
-32.45
-34.389
-36.115
-37.637
-38.963
-40.102
-41.065
-41.863
-42.507
-43.008
-43.378
-43.63
-43.775
-43.826
-43.794
-43.691
-43.53
-43.322
-43.076
-42.806
-42.519
-42.227
-41.937
-41.659
-41.4
-41.168
-40.969
-40.811
-40.697
-40.634
-40.625
-40.674
-40.785
-40.959
-41.199
-41.506
-41.881
-42.324
-42.835
-43.414
-44.058
-44.767
-45.539
-46.37
-47.259
-48.201
-49.193
-50.231
-51.312
-52.431
-53.583
-54.763
-55.967
-57.188
-58.421
-59.66
-60.898
-62.129
-63.346
-64.542
-65.71
-66.843
-67.934
-68.977
-69.963
-70.886
-71.74
-72.515
-73.208
-73.809
-74.313
-74.713
-75.005
-75.184
-75.246
-75.187
-75.004
-74.695
-74.259
-73.693
-72.999
-72.175
-71.223
-70.145
-68.943
-67.623
-66.189
-64.649
-63.013
-61.289
-59.488
-57.623
-55.704
-53.745
-51.757
-49.751
-47.739
-45.73
-43.737
-41.772
-39.848
-37.98
-36.183
-34.469
-32.849
-31.332
-29.929
-28.646
-27.485
-26.448
-25.538
-24.763
-24.141
-23.686
-23.407
-23.309
-23.391
-23.647
-24.068
-24.64
-25.332
-26.115
-26.961
-27.847
-28.771
-29.726
-30.707
-31.695
-32.651
-33.545
-34.366
-35.11
-35.791
-36.431
-37.051
-37.694
-38.431
-39.34
-40.505
-41.994
-43.834
-46.043
-48.609
-51.561
-55.023
-59.028
-63.487
-68.245
-72.989
-77.417
-81.351
-84.457
-86.19
-86.271
-84.718
-81.76
-78.128
-74.684
-72.066
-71.205
-73.355
-78.231
-84.094
-89.611
-92.54
-93.324
-95.933
-100.033
-103.163
-99.221
-76.502
-30.393
38.074
124.056
214.52
299.827
372.48
423.215
448.518
443.266
402.58
328.286
221.333
88.147
-57.541
-202.317
-328.331
-420.558
-475.614
-496.293
-493.372
-480.329
-462.61
-440.967
-412.738
-373.797
-325.083
-270.649
-214.977
-162.796
-117.004
-78.855
-49.17
-27.899
-14.314
-7.413
-5.914
-8.309
-12.888
-17.89
-21.686
-23.344
-22.693
-19.932
-15.475
-9.884
-3.84
1.813
6.194
8.888
9.948
9.625
8.294
6.322
4.051
1.911
0.376
-0.282
0.005
1.212
3.221
5.93
9.276
13.149
17.397
21.881
26.471
31.047
35.548
39.915
44.071
47.968
51.563
54.831
57.785
60.443
62.818
64.935
66.82
68.503
70.03
71.45
72.816
74.186
75.604
77.105
78.719
80.468
82.369
84.432
86.657
89.037
91.569
94.249
97.074
100.041
103.142
106.367
109.704
113.138
116.656
120.244
123.889
127.576
131.29
135.018
138.745
142.458
146.14
149.774
153.34
156.816
160.18
163.412
166.49
169.39
172.093
174.578
176.825
178.817
180.537
181.968
183.095
183.905
184.386
184.526
184.318
183.753
182.827
181.537
179.881
177.859
175.476
172.734
169.641
166.204
162.434
158.342
153.943
149.25
144.281
139.055
133.591
127.911
122.038
115.993
109.802
103.488
97.077
90.594
84.062
77.507
70.953
64.424
57.943
51.532
45.213
39.006
32.931
27.007
21.25
15.675
10.297
5.129
0.181
-4.536
-9.015
-13.248
-17.232
-20.962
-24.436
-27.654
-30.618
-33.33
-35.794
-38.016
-40.003
-41.761
-43.302
-44.633
-45.766
-46.713
-47.484
-48.093
-48.551
-48.874
-49.072
-49.161
-49.152
-49.06
-48.896
-48.673
-48.404
-48.1
-47.772
-47.431
-47.088
-46.753
-46.435
-46.143
-45.885
-45.668
-45.5
-45.386
-45.332
-45.343
-45.422
-45.574
-45.8
-46.103
-46.484
-46.945
-47.485
-48.105
-48.803
-49.578
-50.429
-51.352
-52.346
-53.407
-54.532
-55.718
-56.961
-58.257
-59.602
-60.991
-62.419
-63.88
-65.368
-66.876
-68.399
-69.928
-71.457
-72.979
-74.485
-75.969
-77.422
-78.837
-80.204
-81.516
-82.764
-83.94
-85.037
-86.044
-86.956
-87.764
-88.462
-89.043
-89.502
-89.834
-90.032
-90.094
-90.014
-89.791
-89.422
-88.905
-88.24
-87.426
-86.466
-85.363
-84.124
-82.755
-81.263
-79.657
-77.946
-76.142
-74.256
-72.296
-70.273
-68.198
-66.081
-63.937
-61.779
-59.621
-57.478
-55.367
-53.302
-51.298
-49.368
-47.523
-45.767
-44.109
-42.557
-41.121
-39.817
-38.661
-37.661
-36.83
-36.172
-35.686
-35.368
-35.203
-35.167
-35.241
-35.403
-35.637
-35.934
-36.282
-36.675
-37.104
-37.548
-37.981
-38.394
-38.776
-39.128
-39.485
-39.872
-40.338
-40.951
-41.754
-42.803
-44.164
-45.882
-47.991
-50.506
-53.405
-56.712
-60.538
-64.906
-69.722
-74.807
-79.812
-84.424
-88.443
-91.524
-93.142
-92.978
-91.064
-87.689
-83.583
-79.625
-76.441
-74.89
-76.31
-80.611
-85.941
-90.671
-92.549
-92.188
-94.25
-99.587
-105.252
-103.275
-80.704
-31.485
42.014
131.193
222.516
307.066
380.619
438.997
478.29
489.97
463.584
394.867
283.728
138.686
-22.107
-180.477
-316.405
-413.988
-471.023
-492.488
-489.362
-474.705
-452.336
-419.871
-376.012
-321.057
-260.702
-205.441
-160.38
-125.251
-98.507
-75.904
-56.221
-42.26
-34.853
-34.007
-38.442
-44.523
-49.647
-52.478
-52.292
-49.383
-44.296
-37.493
-29.612
-21.498
-14.067
-8.124
-4.076
-1.861
-1.154
-1.58
-2.798
-4.474
-6.221
-7.583
-8.251
-8.111
-7.17
-5.514
-3.217
-0.307
3.17
7.092
11.333
15.758
20.22
24.655
29.016
33.248
37.306
41.135
44.685
47.951
50.95
53.691
56.184
58.432
60.441
62.247
63.904
65.472
67.013
68.573
70.18
71.868
73.661
75.581
77.644
79.85
82.19
84.662
87.268
90.011
92.895
95.912
99.051
102.302
105.652
109.089
112.599
116.168
119.78
123.422
127.079
130.739
134.39
138.016
141.598
145.118
148.555
151.888
155.097
158.158
161.05
163.752
166.244
168.507
170.523
172.276
173.749
174.93
175.804
176.36
176.59
176.485
176.039
175.248
174.111
172.627
170.8
168.632
166.131
163.306
160.166
156.724
152.993
148.99
144.731
140.236
135.524
130.618
125.54
120.314
114.966
109.519
104.001
98.436
92.851
87.27
81.719
76.222
70.803
65.484
60.287
55.233
50.34
45.627
41.109
36.802
32.718
28.868
25.263
21.908
18.811
15.975
13.402
11.093
9.045
7.257
5.724
4.438
3.392
2.577
1.983
1.597
1.408
1.401
1.562
1.877
2.329
2.904
3.585
4.357
5.203
6.107
7.054
8.028
9.015
10.001
10.972
11.915
12.818
13.671
14.463
15.184
15.827
16.383
16.847
17.212
17.475
17.631
17.68
17.618
17.445
17.161
16.768
16.267
15.66
14.949
14.14
13.235
12.239
11.157
9.995
8.759
7.454
6.088
4.666
3.195
1.682
0.134
-1.443
-3.041
-4.653
-6.272
-7.89
-9.5
-11.095
-12.667
-14.21
-15.715
-17.177
-18.588
-19.942
-21.232
-22.453
-23.597
-24.659
-25.632
-26.511
-27.29
-27.964
-28.527
-28.976
-29.308
-29.518
-29.605
-29.567
-29.402
-29.109
-28.689
-28.141
-27.467
-26.667
-25.745
-24.706
-23.554
-22.299
-20.947
-19.507
-17.989
-16.405
-14.765
-13.08
-11.36
-9.614
-7.854
-6.09
-4.335
-2.602
-0.903
0.747
2.334
3.846
5.27
6.596
7.817
8.926
9.92
10.791
11.532
12.127
12.564
12.834
12.931
12.85
12.595
12.167
11.58
10.857
10.017
9.08
8.065
6.98
5.838
4.651
3.431
2.206
1.002
-0.167
-1.294
-2.38
-3.446
-4.507
-5.595
-6.764
-8.068
-9.568
-11.324
-13.392
-15.814
-18.606
-21.794
-25.426
-29.537
-34.105
-39
-43.962
-48.712
-53.026
-56.657
-59.297
-60.65
-60.522
-59.077
-56.871
-54.543
-52.63
-51.715
-52.467
-55.557
-61.645
-69.696
-76.975
-81.098
-79.597
-73.388
-66.725
-60.663
-54.675
-42.831
-13.205
40.355
119.776
219.115
322.458
415.597
484.434
519.177
516.516
473.656
392.845
277.721
134.558
-23.566
-181.841
-322.103
-427.46
-490.283
-512.17
-502.759
-475.16
-437.74
-391.455
-335.239
-269.808
-201.063
-139.66
-93.36
-63.692
-46.226
-34.248
-23.758
-14.61
-9.45
-9.948
-15.17
-22.69
-29.311
-32.993
-33.47
-31.155
-26.752
-20.996
-14.534
-8.071
-2.378
1.882
4.531
5.764
5.821
5.04
3.744
2.203
0.809
-0.027
-0.114
0.594
2.074
4.22
6.972
10.305
14.104
18.226
22.526
26.847
31.107
35.279
39.323
43.201
46.865
50.265
53.392
56.264
58.888
61.271
63.415
65.323
67.029
68.586
70.048
71.48
72.924
74.411
75.97
77.626
79.399
81.308
83.354
85.531
87.84
90.283
92.864
95.59
98.456
101.452
104.571
107.8
111.129
114.548
118.042
121.597
125.202
128.843
132.508
136.186
139.861
143.515
147.132
150.689
154.167
157.543
160.796
163.902
166.839
169.585
172.119
174.422
176.474
178.257
179.752
180.944
181.817
182.359
182.557
182.4
181.881
180.994
179.732
178.095
176.081
173.693
170.934
167.811
164.331
160.504
156.341
151.857
147.066
141.985
136.633
131.03
125.198
119.158
112.937
106.557
100.045
93.426
86.726
79.971
73.187
66.4
59.635
52.917
46.269
39.715
33.278
26.979
20.838
14.874
9.104
3.545
-1.79
-6.887
-11.736
-16.326
-20.65
-24.702
-28.477
-31.973
-35.189
-38.124
-40.783
-43.167
-45.283
-47.136
-48.737
-50.092
-51.214
-52.112
-52.8
-53.29
-53.595
-53.729
-53.707
-53.544
-53.254
-52.852
-52.354
-51.775
-51.13
-50.434
-49.701
-48.944
-48.179
-47.417
-46.671
-45.952
-45.272
-44.64
-44.067
-43.561
-43.129
-42.778
-42.514
-42.342
-42.265
-42.287
-42.409
-42.633
-42.957
-43.382
-43.906
-44.528
-45.244
-46.051
-46.945
-47.922
-48.976
-50.101
-51.29
-52.537
-53.833
-55.17
-56.539
-57.933
-59.342
-60.757
-62.169
-63.569
-64.946
-66.291
-67.595
-68.848
-70.04
-71.163
-72.208
-73.166
-74.031
-74.795
-75.453
-76
-76.432
-76.744
-76.933
-76.998
-76.935
-76.745
-76.427
-75.983
-75.413
-74.721
-73.913
-72.997
-71.979
-70.869
-69.676
-68.411
-67.086
-65.711
-64.297
-62.852
-61.388
-59.916
-58.448
-56.998
-55.578
-54.202
-52.884
-51.636
-50.47
-49.394
-48.416
-47.538
-46.764
-46.098
-45.548
-45.129
-44.855
-44.736
-44.781
-44.994
-45.373
-45.917
-46.612
-47.435
-48.367
-49.384
-50.467
-51.61
-52.8
-54.028
-55.284
-56.537
-57.755
-58.918
-60.014
-61.048
-62.041
-63.012
-63.994
-65.038
-66.2
-67.561
-69.192
-71.142
-73.454
-76.129
-79.191
-82.756
-86.896
-91.576
-96.672
-101.901
-106.934
-111.563
-115.5
-118.272
-119.534
-119.18
-117.396
-114.825
-112.379
-110.902
-111.238
-114.562
-121.063
-129.394
-138.157
-145.419
-150.566
-156.293
-163.728
-170.407
-170.969
-155.434
-115.463
-50.8
34.456
131.999
230.892
324.675
405.906
463.783
490.149
475.715
415.84
315.295
179.994
20.958
-147.167
-310.088
-449.777
-551.902
-609.643
-624.513
-605.75
-563.124
-506.18
-440.847
-371.882
-307.306
-251.496
-207.457
-175.501
-150
-128.465
-110.29
-95.582
-87.58
-86.676
-90.799
-97.655
-103.776
-106.946
-106.844
-103.667
-98.101
-91.017
-83.073
-75.038
-67.878
-62.412
-58.992
-57.531
-57.672
-58.974
-61.068
-63.624
-66.236
-68.435
-69.92
-70.575
-70.405
-69.502
-67.938
-65.737
-62.949
-59.7
-56.12
-52.349
-48.535
-44.743
-41.02
-37.419
-33.985
-30.771
-27.825
-25.151
-22.73
-20.553
-18.609
-16.894
-15.402
-14.09
-12.903
-11.78
-10.653
-9.478
-8.224
-6.858
-5.357
-3.7
-1.877
0.108
2.242
4.518
6.933
9.486
12.174
14.986
17.91
20.934
24.043
27.224
30.458
33.728
37.017
40.308
43.586
46.834
50.035
53.167
56.211
59.146
61.948
64.591
67.042
69.265
71.229
72.915
74.307
75.391
76.158
76.603
76.73
76.561
76.115
75.41
74.458
73.264
71.842
70.209
68.383
66.387
64.231
61.9
59.372
56.628
53.633
50.362
46.79
42.851
38.484
33.638
28.259
22.338
15.901
8.949
1.469
-6.497
-14.881
-23.478
-31.95
-40.084
-47.769
-54.927
-61.529
-67.507
-72.77
-77.535
-82.318
-87.419
-92.908
-98.564
-103.859
-108.411
-111.963
-113.855
-113.042
-108.603
-99.914
-87.019
-70.578
-51.123
-29.12
-5.443
18.527
41.101
60.763
76.777
88.967
97.064
100.749
99.934
95.221
87.929
79.345
70.28
61.343
53.357
47.542
45.177
46.739
51.966
60.551
72.285
86.949
103.897
121.604
138.277
152.832
164.723
173.553
178.965
180.523
178.268
173.218
166.731
159.731
152.775
146.19
140.284
135.584
132.346
130.205
128.518
126.806
124.827
122.555
119.986
116.934
113.257
109.029
104.469
99.782
95.067
90.312
85.466
80.55
75.618
70.707
65.821
60.953
56.112
51.336
46.683
42.21
37.954
33.941
30.186
26.711
23.539
20.695
18.208
16.094
14.359
13.002
12.018
11.401
11.14
11.211
11.571
12.181
13.003
14.015
15.219
16.606
18.165
19.885
21.744
23.744
25.907
28.247
30.77
33.488
36.408
39.565
43.034
46.863
51.087
55.707
60.677
65.959
71.516
77.29
83.216
89.195
95.083
100.767
106.156
111.155
115.682
119.615
122.788
125.079
126.406
126.729
126.07
124.447
121.871
118.394
114.101
109.115
103.605
97.708
91.521
85.142
78.661
72.199
65.906
59.88
54.155
48.723
43.532
38.543
33.741
29.079
24.463
19.765
14.842
9.589
3.974
-2.034
-8.522
-15.557
-23.128
-31.073
-39.044
-46.641
-53.535
-59.405
-63.858
-66.594
-67.491
-66.796
-65.203
-63.452
-62.329
-62.703
-65.351
-71.046
-79.466
-88.513
-95.891
-99.199
-97.709
-94.072
-89.405
-82.637
-70.484
-44.178
3.047
72.573
162.83
264.117
363.566
450.224
510.843
535.105
515.98
447.192
330.141
173.026
-10.326
-198.724
-370.775
-509.595
-603.234
-649.399
-653.308
-621.596
-565.204
-495.266
-421.056
-354.127
-300.086
-259.076
-228.375
-200.263
-171.187
-142.143
-115.752
-97.269
-88.269
-86.858
-90.667
-95.952
-100.361
-103.168
-103.614
-101.744
-98.103
-93.101
-87.334
-81.592
-76.456
-72.472
-70.214
-69.775
-70.888
-73.207
-76.304
-79.768
-83.295
-86.549
-89.154
-90.917
-91.797
-91.807
-91.051
-89.609
-87.53
-84.906
-81.872
-78.562
-75.113
-71.656
-68.265
-65.005
-61.95
-59.149
-56.646
-54.469
-52.608
-51.048
-49.777
-48.777
-48.024
-47.494
-47.141
-46.912
-46.753
-46.601
-46.408
-46.139
-45.761
-45.25
-44.587
-43.761
-42.771
-41.624
-40.32
-38.862
-37.253
-35.494
-33.593
-31.563
-29.414
-27.163
-24.825
-22.412
-19.941
-17.425
-14.876
-12.308
-9.735
-7.171
-4.632
-2.138
0.291
2.633
4.865
6.962
8.9
10.653
12.201
13.521
14.588
15.376
15.854
15.998
15.796
15.236
14.315
13.035
11.403
9.437
7.169
4.626
1.838
-1.175
-4.403
-7.828
-11.422
-15.152
-18.973
-22.861
-26.814
-30.834
-34.931
-39.132
-43.471
-48.012
-52.849
-58.056
-63.686
-69.769
-76.3
-83.288
-90.747
-98.69
-107.136
-116.061
-125.387
-135.03
-144.884
-154.803
-164.627
-174.131
-183.032
-191.089
-198.094
-203.867
-208.282
-211.192
-212.435
-211.873
-209.378
-204.883
-198.401
-189.964
-179.637
-167.553
-153.879
-138.873
-122.877
-106.197
-89.114
-71.902
-54.799
-38.087
-22.084
-7.07
6.689
18.982
29.669
38.628
45.766
51.058
54.523
56.254
56.421
55.171
52.637
48.97
44.311
38.849
32.818
26.416
19.824
13.197
6.646
0.273
-5.833
-11.635
-17.12
-22.301
-27.23
-31.941
-36.448
-40.784
-44.973
-49.047
-53.074
-57.09
-61.12
-65.186
-69.281
-73.384
-77.472
-81.49
-85.386
-89.127
-92.669
-95.979
-99.049
-101.864
-104.447
-106.856
-109.119
-111.261
-113.31
-115.271
-117.18
-119.099
-121.065
-123.111
-125.237
-127.388
-129.517
-131.587
-133.504
-135.15
-136.335
-136.783
-136.265
-134.617
-131.659
-127.205
-121.087
-113.127
-103.241
-91.515
-78.056
-62.87
-45.952
-27.27
-6.689
15.862
40.444
67.323
96.668
128.268
161.704
196.273
230.835
264.341
295.768
323.782
347.337
365.972
379.495
388.241
393.093
394.695
393.67
390.952
387.154
382.552
377.347
371.303
363.934
355.158
345.005
333.446
320.706
307.023
292.621
277.993
263.68
250.001
237.199
225.419
214.689
205.119
196.785
189.637
183.606
178.544
174.259
170.588
167.334
164.29
161.296
158.147
154.598
150.5
145.786
140.54
135.017
129.411
123.864
118.584
113.845
109.972
107.201
105.289
103.656
101.766
99.02
94.893
88.944
80.345
69.135
57.405
47.524
41.823
41.084
41.959
41.704
41.52
45.523
62.653
101.977
164.925
248.737
346.62
446.743
539.572
614.232
657.618
659.632
612.183
513.866
369.898
192.87
2.244
-181.982
-336.144
-443.002
-497.898
-502.513
-472.427
-426.911
-378.269
-337.482
-305.308
-275.748
-245.034
-207.451
-162.006
-113.343
-66.194
-26.637
1.965
20.129
29.637
33.232
32.786
29.514
24.737
19.74
16.015
14.452
15.089
17.686
21.837
26.896
32.245
37.109
40.57
42.268
42.269
40.797
38.284
35.156
31.775
28.606
26.14
24.634
24.183
24.786
26.329
28.73
31.924
35.791
40.205
45.042
50.186
55.536
60.993
66.458
71.836
77.05
82.044
86.787
91.265
95.473
99.422
103.127
106.611
109.902
113.021
116
118.873
121.681
124.471
127.282
130.137
133.056
136.051
139.124
142.274
145.494
148.767
152.077
155.412
158.758
162.107
165.445
168.757
172.026
175.236
178.368
181.41
184.347
187.166
189.852
192.394
194.781
197.003
199.05
200.909
202.566
204.009
205.224
206.2
206.923
207.381
207.564
207.463
207.069
206.375
205.376
204.067
202.444
200.506
198.251
195.68
192.796
189.6
186.098
182.296
178.2
173.82
169.164
164.245
159.072
153.659
148.021
142.17
136.124
129.899
123.511
116.98
110.323
103.559
96.71
89.793
82.829
75.838
68.84
61.855
54.901
47.997
41.161
34.41
27.761
21.23
14.831
8.578
2.485
-3.437
-9.178
-14.727
-20.077
-25.218
-30.146
-34.854
-39.339
-43.597
-47.627
-51.426
-54.996
-58.338
-61.453
-64.345
-67.018
-69.477
-71.728
-73.778
-75.633
-77.301
-78.792
-80.114
-81.276
-82.288
-83.16
-83.903
-84.525
-85.038
-85.45
-85.772
-86.013
-86.182
-86.288
-86.339
-86.345
-86.311
-86.247
-86.158
-86.051
-85.931
-85.803
-85.672
-85.541
-85.414
-85.293
-85.18
-85.077
-84.984
-84.903
-84.833
-84.773
-84.722
-84.679
-84.64
-84.604
-84.565
-84.521
-84.467
-84.399
-84.313
-84.205
-84.071
-83.905
-83.704
-83.463
-83.179
-82.845
-82.459
-82.016
-81.512
-80.945
-80.312
-79.613
-78.844
-78.007
-77.1
-76.126
-75.083
-73.975
-72.801
-71.564
-70.266
-68.911
-67.504
-66.049
-64.555
-63.029
-61.482
-59.923
-58.362
-56.81
-55.277
-53.77
-52.297
-50.865
-49.482
-48.154
-46.888
-45.692
-44.574
-43.541
-42.6
-41.754
-41.004
-40.353
-39.799
-39.338
-38.967
-38.684
-38.495
-38.414
-38.452
-38.615
-38.906
-39.326
-39.872
-40.539
-41.314
-42.167
-43.069
-43.99
-44.903
-45.801
-46.665
-47.479
-48.213
-48.817
-49.257
-49.526
-49.621
-49.543
-49.298
-48.877
-48.313
-47.698
-47.129
-46.723
-46.572
-46.715
-47.221
-48.185
-49.688
-51.799
-54.425
-57.283
-60.098
-62.646
-64.694
-66.022
-66.365
-65.49
-63.629
-61.472
-59.793
-59.303
-60.634
-64.404
-71.273
-81.801
-94.64
-106.643
-115.05
-116.989
-112.884
-106.576
-97.941
-85.456
-64.47
-24.799
36.527
118.215
216.621
319.549
417.015
499.008
552.221
566.659
533.564
449.655
319.995
157.723
-17.86
-186.43
-328.646
-432.772
-495.317
-519.253
-513.466
-486.528
-446.16
-398.705
-349.491
-303.682
-263.483
-228.639
-195.854
-161.794
-126.665
-92.959
-64.902
-45.32
-33.749
-28.169
-26.112
-25.597
-25.609
-25.392
-24.07
-21.2
-16.861
-11.36
-5.12
1.342
7.589
13.085
17.098
19.347
19.971
19.198
17.439
15.055
12.296
9.546
7.266
5.716
5.014
5.185
6.131
7.797
10.16
13.125
16.579
20.397
24.445
28.621
32.837
37.011
41.072
44.948
48.578
51.932
55
57.781
60.292
62.546
64.558
66.362
67.992
69.493
70.915
72.309
73.729
75.22
76.815
78.544
80.427
82.475
84.693
87.081
89.628
92.33
95.181
98.173
101.299
104.549
107.91
111.365
114.898
118.49
122.125
125.784
129.453
133.113
136.747
140.339
143.873
147.332
150.694
153.939
157.044
159.986
162.743
165.292
167.611
169.678
171.473
172.978
174.175
175.05
175.587
175.775
175.602
175.058
174.139
172.837
171.15
169.078
166.621
163.782
160.566
156.982
153.038
148.746
144.118
139.168
133.914
128.373
122.565
116.511
110.233
103.756
97.106
90.307
83.386
76.372
69.292
62.174
55.044
47.932
40.862
33.861
26.954
20.166
13.519
7.035
0.734
-5.366
-11.247
-16.893
-22.291
-27.429
-32.297
-36.885
-41.187
-45.198
-48.914
-52.333
-55.457
-58.285
-60.823
-63.076
-65.049
-66.751
-68.193
-69.385
-70.339
-71.068
-71.586
-71.908
-72.049
-72.026
-71.854
-71.551
-71.132
-70.614
-70.015
-69.349
-68.633
-67.882
-67.109
-66.33
-65.557
-64.802
-64.078
-63.395
-62.763
-62.192
-61.689
-61.263
-60.918
-60.659
-60.492
-60.417
-60.437
-60.552
-60.762
-61.066
-61.462
-61.947
-62.518
-63.169
-63.897
-64.695
-65.557
-66.475
-67.441
-68.447
-69.485
-70.546
-71.62
-72.699
-73.774
-74.836
-75.875
-76.882
-77.847
-78.761
-79.615
-80.399
-81.105
-81.723
-82.247
-82.668
-82.982
-83.183
-83.266
-83.227
-83.062
-82.769
-82.346
-81.789
-81.1
-80.277
-79.322
-78.236
-77.024
-75.69
-74.242
-72.687
-71.033
-69.289
-67.465
-65.572
-63.617
-61.611
-59.56
-57.473
-55.362
-53.238
-51.112
-48.996
-46.904
-44.846
-42.835
-40.879
-38.987
-37.164
-35.411
-33.733
-32.134
-30.626
-29.226
-27.95
-26.808
-25.809
-24.957
-24.253
-23.692
-23.262
-22.937
-22.693
-22.509
-22.367
-22.262
-22.187
-22.129
-22.073
-21.988
-21.839
-21.617
-21.322
-20.956
-20.543
-20.106
-19.678
-19.346
-19.205
-19.345
-19.868
-20.83
-22.259
-24.213
-26.752
-29.921
-33.744
-38.101
-42.732
-47.397
-51.864
-55.885
-59.197
-61.493
-62.531
-62.464
-61.811
-61.18
-61.132
-62.189
-64.915
-69.869
-77.561
-87.111
-95.975
-101.592
-101.374
-94.932
-85.458
-74.89
-63.403
-48.729
-22.214
23.62
91.57
181.109
282.2
380.356
461.758
512.657
523.548
489.32
409.357
286.262
128.761
-45.928
-218.389
-365.499
-468.584
-524.765
-540.512
-530.224
-510.203
-485.32
-452.913
-410.403
-356.449
-296.375
-240.802
-194.827
-158.744
-131.117
-107.538
-87.209
-72.912
-65.223
-64.199
-68.61
-74.942
-80.958
-85.53
-87.6
-87.157
-84.658
-80.419
-75.009
-69.259
-63.829
-59.342
-56.443
-55.279
-55.637
-57.264
-59.78
-62.801
-66.031
-69.092
-71.582
-73.308
-74.212
-74.307
-73.689
-72.42
-70.533
-68.118
-65.299
-62.192
-58.925
-55.592
-52.248
-48.939
-45.721
-42.645
-39.761
-37.091
-34.632
-32.369
-30.293
-28.393
-26.659
-25.062
-23.561
-22.11
-20.658
-19.157
-17.57
-15.872
-14.039
-12.053
-9.905
-7.592
-5.12
-2.503
0.249
3.13
6.129
9.238
12.438
15.712
19.04
22.401
25.775
29.141
32.477
35.763
38.979
42.107
45.129
48.026
50.781
53.372
55.779
57.981
59.957
61.687
63.151
64.331
65.208
65.768
65.997
65.882
65.414
64.582
63.38
61.801
59.841
57.498
54.77
51.657
48.165
44.296
40.059
35.462
30.516
25.234
19.63
13.72
7.521
1.049
-5.675
-12.632
-19.801
-27.161
-34.689
-42.363
-50.158
-58.052
-66.021
-74.04
-82.087
-90.139
-98.175
-106.172
-114.109
-121.966
-129.723
-137.359
-144.853
-152.185
-159.334
-166.281
-173.008
-179.498
-185.737
-191.71
-197.406
-202.816
-207.931
-212.744
-217.246
-221.425
-225.273
-228.78
-231.938
-234.736
-237.166
-239.217
-240.883
-242.166
-243.062
-243.57
-243.685
-243.395
-242.698
-241.598
-240.1
-238.212
-235.946
-233.314
-230.343
-227.073
-223.543
-219.79
-215.838
-211.691
-207.363
-202.865
-198.206
-193.401
-188.445
-183.307
-177.973
-172.43
-166.657
-160.642
-154.342
-147.686
-140.631
-133.138
-125.192
-116.815
-108.021
-98.828
-89.284
-79.442
-69.382
-59.238
-49.121
-39.133
-29.403
-20.037
-11.163
-2.944
4.512
11.11
16.768
21.453
25.13
27.76
29.368
29.986
29.661
28.525
26.698
24.303
21.517
18.483
15.34
12.257
9.344
6.697
4.424
2.592
1.261
0.509
0.361
0.843
1.997
3.782
6.141
9.005
12.237
15.74
19.444
23.259
27.132
31.024
34.875
38.65
42.334
45.883
49.268
52.45
55.359
57.975
60.311
62.391
64.282
66.027
67.636
69.129
70.516
71.789
72.95
73.982
74.849
75.539
76.048
76.383
76.567
76.602
76.464
76.123
75.54
74.682
73.533
72.08
70.31
68.229
65.86
63.232
60.383
57.339
54.113
50.716
47.16
43.466
39.668
35.793
31.87
27.924
23.975
20.017
16.039
11.993
7.808
3.43
-1.205
-6.16
-11.489
-17.248
-23.48
-30.196
-37.414
-45.188
-53.546
-62.452
-71.756
-81.159
-90.354
-99.068
-106.981
-113.705
-118.88
-122.33
-124.282
-125.336
-126.114
-127.269
-129.499
-133.534
-140.314
-149.606
-159.235
-166.755
-169.452
-166.766
-162.734
-160.108
-159.058
-156.499
-140.977
-101.511
-32.887
65.854
183.741
302.87
405.323
472.435
492.319
461.377
382.42
263.659
115.144
-51.157
-222.899
-385.331
-520.675
-615.271
-662.121
-663.718
-634.064
-590.763
-548.113
-514.336
-488.454
-463.399
-432.625
-393.028
-346.434
-299.145
-258.045
-227.124
-207.227
-196.806
-192.89
-193.379
-197.242
-203.171
-209.888
-216.083
-220.479
-222.591
-222.735
-221.365
-218.697
-215.177
-211.427
-208.077
-205.734
-204.572
-204.204
-204.172
-204.454
-205.007
-205.614
-206.052
-206.005
-205.32
-204.225
-203.001
-201.566
-199.824
-197.798
-195.522
-193.223
-191.153
-189.367
-187.877
-186.841
-186.404
-186.669
-187.81
-189.934
-193.039
-197.119
-202.061
-207.529
-213.165
-218.586
-223.172
-226.194
-227.117
-225.562
-221.543
-215.73
-208.951
-202.102
-196.586
-193.122
-190.636
-187.42
-180.861
-169.301
-156.068
-144.994
-137.039
-129.326
-107.98
-55.13
40.951
186.333
370.329
567.856
753.578
901.379
997.248
1044.911
1054.251
1040.297
1014.742
980.914
940.273
895.372
852.373
818.787
800.227
797.028
803.782
813.421
819.011
816.803
806.285
790.179
773.355
758.723
748.183
740.68
732.483
721.868
707.869
690.685
672.382
654.011
636.027
619.117
603.307
588.55
575.036
562.633
551.108
540.391
530.323
520.639
511.215
501.954
492.745
483.612
474.582
465.627
456.759
447.975
439.235
430.511
421.758
412.941
404.067
395.137
386.151
377.12
368.048
358.954
349.881
340.858
331.903
323.04
314.281
305.661
297.23
289.039
281.148
273.596
266.395
259.554
253.075
246.951
241.175
235.729
230.579
225.704
221.082
216.695
212.53
208.56
204.752
201.068
197.466
193.912
190.384
186.865
183.344
179.812
176.265
172.706
169.143
165.582
162.025
158.471
154.921
151.374
147.837
144.314
140.814
137.341
133.899
130.492
127.124
123.798
120.513
117.269
114.062
110.891
107.754
104.652
101.583
98.548
95.545
92.574
89.633
86.722
83.839
80.981
78.143
75.324
72.519
69.725
66.94
64.16
61.383
58.606
55.828
53.047
50.264
47.477
44.689
41.899
39.111
36.328
33.552
30.789
28.042
25.318
22.621
19.959
17.337
14.762
12.242
9.784
7.395
5.082
2.853
0.714
-1.328
-3.266
-5.093
-6.806
-8.397
-9.863
-11.2
-12.403
-13.471
-14.402
-15.196
-15.854
-16.378
-16.771
-17.039
-17.191
-17.236
-17.183
-17.044
-16.832
-16.56
-16.242
-15.89
-15.515
-15.131
-14.75
-14.386
-14.053
-13.768
-13.544
-13.396
-13.339
-13.386
-13.548
-13.834
-14.248
-14.794
-15.479
-16.311
-17.306
-18.477
-19.829
-21.371
-23.104
-25.021
-27.112
-29.358
-31.722
-34.171
-36.679
-39.217
-41.772
-44.327
-46.858
-49.343
-51.754
-54.057
-56.235
-58.277
-60.175
-61.957
-63.665
-65.361
-67.142
-69.088
-71.263
-73.747
-76.609
-79.897
-83.665
-87.926
-92.684
-98.027
-103.991
-110.488
-117.342
-124.201
-130.663
-136.444
-141.202
-144.419
-145.741
-145.113
-142.812
-139.629
-136.354
-133.58
-132.047
-132.688
-136.341
-142.245
-147.933
-150.822
-148.221
-140.996
-133.479
-126.002
-117.105
-101.269
-66.782
-9.562
69.538
166.213
266.578
359.394
434.399
479.558
487.506
451.571
369.648
245.575
89.162
-81.969
-249.058
-391.334
-492.773
-550.599
-569.197
-561.847
-544.39
-522.946
-498.524
-468.304
-427.39
-376.998
-321.886
-266.563
-215.981
-173.133
-138.837
-113.501
-96.75
-87.352
-83.881
-85.145
-89.651
-95.551
-101.211
-105.104
-106.372
-105.116
-101.737
-96.613
-90.342
-83.701
-77.527
-72.742
-69.78
-68.5
-68.634
-69.834
-71.75
-74.066
-76.35
-78.101
-79.04
-79.098
-78.297
-76.757
-74.558
-71.735
-68.386
-64.65
-60.66
-56.551
-52.429
-48.343
-44.343
-40.483
-36.818
-33.4
-30.252
-27.366
-24.727
-22.32
-20.132
-18.15
-16.347
-14.679
-13.098
-11.546
-9.969
-8.325
-6.582
-4.711
-2.688
-0.495
1.878
4.428
7.146
10.028
13.071
16.272
19.624
23.118
26.739
30.471
34.297
38.199
42.16
46.159
50.179
54.201
58.207
62.18
66.103
69.955
73.717
77.366
80.878
84.23
87.398
90.359
93.089
95.565
97.766
99.673
101.266
102.529
103.446
104.003
104.188
103.99
103.4
102.412
101.023
99.229
97.032
94.433
91.438
88.055
84.292
80.161
75.675
70.849
65.7
60.247
54.509
48.508
42.268
35.812
29.166
22.357
15.411
8.357
1.223
-5.964
-13.175
-20.384
-27.561
-34.682
-41.72
-48.65
-55.449
-62.094
-68.564
-74.838
-80.9
-86.732
-92.319
-97.648
-102.709
-107.491
-111.987
-116.192
-120.1
-123.709
-127.019
-130.031
-132.748
-135.173
-137.312
-139.173
-140.764
-142.095
-143.177
-144.021
-144.64
-145.049
-145.26
-145.289
-145.151
-144.86
-144.433
-143.884
-143.229
-142.484
-141.662
-140.777
-139.844
-138.876
-137.885
-136.882
-135.879
-134.887
-133.913
-132.968
-132.059
-131.192
-130.375
-129.611
-128.905
-128.261
-127.681
-127.166
-126.717
-126.335
-126.019
-125.767
-125.577
-125.447
-125.373
-125.352
-125.38
-125.453
-125.565
-125.711
-125.886
-126.084
-126.3
-126.528
-126.762
-126.996
-127.225
-127.442
-127.642
-127.82
-127.968
-128.082
-128.154
-128.18
-128.154
-128.07
-127.922
-127.706
-127.415
-127.047
-126.595
-126.056
-125.425
-124.698
-123.87
-122.939
-121.9
-120.75
-119.486
-118.105
-116.604
-114.982
-113.236
-111.366
-109.371
-107.25
-105.003
-102.63
-100.132
-97.51
-94.766
-91.902
-88.921
-85.828
-82.628
-79.326
-75.928
-72.443
-68.877
-65.24
-61.54
-57.788
-53.993
-50.167
-46.321
-42.467
-38.618
-34.789
-30.995
-27.251
-23.575
-19.983
-16.491
-13.116
-9.875
-6.782
-3.851
-1.093
1.481
3.861
6.035
7.993
9.724
11.218
12.469
13.47
14.219
14.713
14.955
14.951
14.71
14.24
13.542
12.611
11.441
10.037
8.402
6.551
4.499
2.265
-0.124
-2.626
-5.198
-7.799
-10.395
-12.972
-15.516
-18.011
-20.43
-22.721
-24.845
-26.783
-28.524
-30.077
-31.452
-32.669
-33.773
-34.838
-35.95
-37.202
-38.665
-40.369
-42.331
-44.538
-47.023
-49.92
-53.276
-57.024
-61.017
-64.958
-68.559
-71.643
-73.898
-74.787
-73.974
-71.433
-67.414
-62.647
-58.069
-54.46
-52.672
-53.911
-58.033
-63.141
-67.552
-68.971
-67.336
-66.824
-68.831
-71.436
-69.196
-50.07
-5.718
64.607
157.382
260.865
361.853
450.44
515.212
547.18
539.466
485.794
386.761
249.545
87.293
-79.927
-231.92
-352.571
-431.511
-469.511
-474.757
-457.354
-430.018
-400.723
-371.706
-345.021
-317.819
-286.211
-250.303
-209.38
-165.648
-124.588
-88.817
-59.919
-38.424
-22.343
-10.246
-1.867
3.312
5.976
6.864
7.134
7.907
9.49
11.823
14.967
18.746
22.785
26.768
30.13
32.272
33.096
32.741
31.408
29.447
27.183
24.886
22.919
21.656
21.268
21.816
23.279
25.544
28.526
32.144
36.286
40.808
45.577
50.465
55.355
60.164
64.82
69.254
73.422
77.294
80.859
84.122
87.105
89.83
92.327
94.631
96.773
98.795
100.744
102.672
104.636
106.68
108.837
111.133
113.584
116.202
118.994
121.956
125.077
128.349
131.761
135.306
138.977
142.763
146.65
150.621
154.657
158.74
162.854
166.98
171.102
175.2
179.257
183.254
187.175
191.003
194.717
198.295
201.715
204.954
207.992
210.806
213.375
215.678
217.696
219.413
220.811
221.877
222.596
222.958
222.952
222.569
221.805
220.653
219.112
217.18
214.86
212.155
209.07
205.614
201.795
197.626
193.119
188.29
183.154
177.732
172.041
166.103
159.94
153.576
147.033
140.338
133.516
126.593
119.594
112.547
105.478
98.412
91.374
84.39
77.484
70.677
63.994
57.454
51.078
44.884
38.891
33.113
27.566
22.262
17.213
12.429
7.916
3.682
-0.268
-3.933
-7.31
-10.399
-13.203
-15.723
-17.965
-19.933
-21.636
-23.08
-24.276
-25.232
-25.961
-26.474
-26.784
-26.904
-26.846
-26.626
-26.256
-25.752
-25.127
-24.396
-23.574
-22.673
-21.709
-20.694
-19.642
-18.564
-17.472
-16.378
-15.291
-14.221
-13.176
-12.165
-11.194
-10.27
-9.399
-8.584
-7.831
-7.142
-6.519
-5.965
-5.481
-5.066
-4.721
-4.444
-4.236
-4.093
-4.014
-3.997
-4.038
-4.134
-4.282
-4.477
-4.716
-4.995
-5.309
-5.654
-6.027
-6.423
-6.838
-7.269
-7.713
-8.167
-8.629
-9.095
-9.563
-10.033
-10.502
-10.969
-11.434
-11.895
-12.352
-12.806
-13.255
-13.701
-14.143
-14.581
-15.016
-15.448
-15.877
-16.305
-16.73
-17.154
-17.577
-17.999
-18.421
-18.842
-19.262
-19.681
-20.097
-20.509
-20.915
-21.314
-21.703
-22.079
-22.441
-22.784
-23.107
-23.403
-23.671
-23.904
-24.099
-24.251
-24.356
-24.408
-24.403
-24.338
-24.208
-24.011
-23.743
-23.402
-22.986
-22.493
-21.92
-21.269
-20.538
-19.727
-18.838
-17.872
-16.834
-15.73
-14.566
-13.347
-12.083
-10.781
-9.45
-8.1
-6.739
-5.373
-4.01
-2.659
-1.331
-0.036
1.215
2.413
3.546
4.604
5.579
6.46
7.245
7.932
8.52
9.004
9.378
9.627
9.74
9.713
9.539
9.217
8.749
8.141
7.408
6.577
5.674
4.719
3.734
2.727
1.709
0.698
-0.284
-1.209
-2.047
-2.78
-3.4
-3.906
-4.316
-4.657
-4.973
-5.33
-5.8
-6.452
-7.361
-8.582
-10.155
-12.104
-14.464
-17.309
-20.696
-24.613
-28.925
-33.382
-37.731
-41.755
-45.213
-47.758
-49.038
-48.868
-47.459
-45.379
-43.215
-41.582
-41.066
-42.249
-45.985
-52.177
-58.925
-64.028
-65.082
-61.35
-56.165
-52.037
-48.724
-43.227
-26.092
11.955
74.761
162.41
266.455
373.022
467.357
533.605
560.604
542.621
481.227
383.825
258.06
115.336
-33.367
-176.114
-295.378
-379.218
-423.274
-430.745
-415.783
-392.434
-367.474
-342.744
-314.735
-279.273
-237.459
-192.87
-149.676
-112.157
-82.068
-59.474
-43.876
-34.097
-28.953
-27.397
-28.266
-30.237
-31.953
-32.202
-30.43
-26.689
-21.299
-14.733
-7.461
-0.027
6.823
12.299
16.004
17.953
18.414
17.779
16.347
14.366
12.172
10.18
8.716
7.944
7.89
8.49
9.69
11.475
13.818
16.644
19.849
23.318
26.926
30.573
34.202
37.757
41.191
44.459
47.51
50.312
52.871
55.2
57.308
59.204
60.891
62.38
63.717
64.952
66.138
67.334
68.577
69.895
71.319
72.87
74.564
76.412
78.409
80.547
82.822
85.234
87.781
90.462
93.267
96.18
99.19
102.279
105.432
108.632
111.861
115.102
118.338
121.554
124.734
127.862
130.922
133.894
136.757
139.49
142.071
144.479
146.692
148.688
150.447
151.949
153.177
154.114
154.745
155.054
155.03
154.662
153.94
152.857
151.406
149.585
147.391
144.825
141.89
138.589
134.929
130.919
126.57
121.893
116.903
111.614
106.044
100.212
94.138
87.843
81.35
74.681
67.863
60.918
53.875
46.757
39.592
32.405
25.221
18.066
10.966
3.943
-2.98
-9.779
-16.435
-22.928
-29.239
-35.352
-41.251
-46.923
-52.355
-57.538
-62.462
-67.121
-71.509
-75.623
-79.461
-83.023
-86.311
-89.327
-92.076
-94.565
-96.8
-98.789
-100.541
-102.068
-103.381
-104.491
-105.412
-106.156
-106.738
-107.173
-107.474
-107.657
-107.735
-107.723
-107.635
-107.485
-107.286
-107.051
-106.791
-106.519
-106.244
-105.978
-105.728
-105.504
-105.311
-105.158
-105.048
-104.986
-104.976
-105.021
-105.122
-105.281
-105.498
-105.774
-106.108
-106.499
-106.945
-107.443
-107.992
-108.588
-109.227
-109.908
-110.624
-111.374
-112.153
-112.958
-113.784
-114.629
-115.488
-116.359
-117.238
-118.123
-119.01
-119.899
-120.786
-121.672
-122.554
-123.433
-124.309
-125.182
-126.053
-126.923
-127.793
-128.665
-129.541
-130.422
-131.311
-132.209
-133.12
-134.046
-134.989
-135.952
-136.936
-137.945
-138.978
-140.039
-141.128
-142.246
-143.393
-144.571
-145.78
-147.019
-148.289
-149.588
-150.916
-152.27
-153.648
-155.047
-156.464
-157.895
-159.334
-160.779
-162.223
-163.662
-165.09
-166.5
-167.888
-169.246
-170.568
-171.847
-173.075
-174.246
-175.354
-176.392
-177.353
-178.234
-179.028
-179.733
-180.346
-180.862
-181.28
-181.598
-181.813
-181.927
-181.939
-181.848
-181.658
-181.37
-180.989
-180.521
-179.973
-179.354
-178.673
-177.938
-177.16
-176.349
-175.516
-174.669
-173.817
-172.968
-172.135
-171.327
-170.557
-169.837
-169.176
-168.586
-168.076
-167.652
-167.321
-167.084
-166.94
-166.891
-166.939
-167.092
-167.365
-167.771
-168.317
-169.006
-169.837
-170.808
-171.913
-173.134
-174.445
-175.82
-177.233
-178.662
-180.1
-181.533
-182.939
-184.295
-185.556
-186.677
-187.639
-188.439
-189.069
-189.544
-189.872
-190.069
-190.206
-190.369
-190.642
-191.117
-191.864
-192.915
-194.338
-196.24
-198.684
-201.687
-205.124
-208.679
-212.029
-214.927
-217.117
-218.324
-218.331
-217.031
-214.702
-212.139
-210.281
-209.924
-211.619
-215.815
-222.855
-232.763
-244.835
-256.679
-264.683
-265.625
-257.591
-241.748
-220.869
-196.44
-167.883
-129.928
-76.843
-6.097
81.113
175.252
263.808
333.718
372.105
372.298
330.914
249.301
133.584
-8.266
-163.771
-318.126
-455.494
-561.397
-628.449
-658.247
-658.936
-640.775
-610.454
-568.188
-513.231
-447.793
-379.246
-319.095
-275.169
-248.61
-234.169
-224.279
-214.592
-205.075
-198.881
-198.331
-202.911
-210.087
-216.412
-219.696
-219.577
-216.479
-210.988
-203.542
-194.458
-184.122
-173.074
-162.115
-151.69
-141.951
-133.543
-127.011
-122.519
-120.594
-120.662
-120.393
-119.056
-116.56
-112.878
-110.335
-107.044
-96.72
-73.898
-32.569
27.038
97.265
170.347
238.328
297.088
347.012
388.471
422.196
447.088
461.657
465.067
457.151
442.226
424.767
409.443
400.708
396.717
395.297
394.389
390.88
386.037
380.9
375.16
369.599
363.455
356.083
348.077
339.738
331.51
324.017
317.539
312.199
308.102
305.228
303.439
302.605
302.581
303.158
304.146
305.409
306.811
308.244
309.601
310.759
311.608
312.041
311.968
311.336
310.114
308.293
305.889
302.94
299.517
295.732
291.673
287.401
282.947
278.308
273.521
268.631
263.677
258.707
253.748
248.796
243.854
238.915
233.942
228.899
223.718
218.288
212.552
206.49
200.123
193.529
186.75
179.804
172.719
165.516
158.227
150.899
143.563
136.234
128.956
121.775
114.765
108.035
101.647
95.624
89.962
84.612
79.544
74.754
70.223
65.935
61.877
58.03
54.398
51.002
47.846
44.922
42.208
39.662
37.263
35.012
32.918
31.003
29.288
27.776
26.482
25.419
24.594
24.012
23.663
23.528
23.593
23.852
24.302
24.946
25.782
26.804
28.005
29.381
30.923
32.629
34.492
36.503
38.659
40.959
43.402
45.993
48.736
51.631
54.681
57.887
61.25
64.771
68.448
72.281
76.265
80.399
84.682
89.109
93.678
98.385
103.223
108.188
113.272
118.467
123.765
129.155
134.627
140.167
145.763
151.401
157.065
162.739
168.407
174.049
179.648
185.184
190.638
195.988
201.215
206.299
211.217
215.951
220.481
224.786
228.85
232.654
236.184
239.423
242.358
244.975
247.265
249.218
250.824
252.078
252.974
253.509
253.681
253.491
252.94
252.031
250.77
249.163
247.219
244.947
242.359
239.468
236.288
232.833
229.12
225.167
220.991
216.613
212.051
207.327
202.46
197.472
192.383
187.214
181.986
176.719
171.432
166.145
160.876
155.644
150.466
145.357
140.336
135.416
130.611
125.935
121.4
117.016
112.794
108.742
104.868
101.18
97.683
94.382
91.28
88.381
85.687
83.198
80.915
78.834
76.954
75.272
73.782
72.48
71.358
70.412
69.632
69.012
68.543
68.216
68.022
67.951
67.99
68.128
68.35
68.643
68.992
69.382
69.798
70.226
70.652
71.064
71.452
71.803
72.108
72.353
72.526
72.616
72.613
72.506
72.286
71.947
71.483
70.893
70.179
69.342
68.38
67.287
66.049
64.655
63.102
61.387
59.511
57.482
55.306
53.004
50.609
48.148
45.65
43.135
40.61
38.09
35.597
33.152
30.8
28.575
26.489
24.548
22.753
21.08
19.511
18.008
16.486
14.865
13.064
11.002
8.645
5.964
2.909
-0.587
-4.603
-9.156
-14.102
-19.207
-24.22
-28.88
-32.938
-36.067
-37.851
-38.1
-37.064
-35.252
-33.321
-32.016
-31.987
-33.965
-38.912
-46.669
-55.314
-62.822
-66.95
-66.999
-65.613
-64.019
-60.404
-50.615
-26.6
18.576
85.049
169.196
263.454
356.667
440.746
506.976
545.559
549.499
512.1
431.96
313.606
165.873
3.27
-158.202
-301.295
-411.098
-480.264
-508.709
-504.263
-477.338
-434.97
-381.614
-319.285
-251.916
-188.108
-135.001
-96.983
-73.274
-56.903
-43.277
-30.67
-19.612
-13.83
-14.187
-18.748
-25.197
-30.327
-32.353
-31.352
-27.732
-22.167
-15.451
-8.238
-1.237
4.742
9.049
11.498
12.252
11.638
10.048
7.832
5.291
2.785
0.729
-0.634
-1.222
-1.038
-0.166
1.329
3.429
6.079
9.163
12.566
16.156
19.8
23.439
27.028
30.514
33.856
36.998
39.892
42.535
44.94
47.116
49.069
50.806
52.333
53.69
54.93
56.108
57.288
58.51
59.803
61.197
62.716
64.38
66.203
68.185
70.319
72.601
75.033
77.616
80.351
83.229
86.239
89.367
92.599
95.922
99.321
102.778
106.278
109.806
113.346
116.883
120.405
123.893
127.328
130.69
133.957
137.109
140.121
142.973
145.641
148.102
150.337
152.324
154.046
155.483
156.618
157.437
157.923
158.065
157.852
157.272
156.321
154.991
153.281
151.189
148.715
145.864
142.641
139.055
135.114
130.83
126.218
121.291
116.069
110.569
104.811
98.817
92.608
86.208
79.641
72.929
66.098
59.173
52.177
45.137
38.077
31.022
23.995
17.019
10.118
3.312
-3.377
-9.932
-16.336
-22.571
-28.625
-34.483
-40.136
-45.573
-50.787
-55.772
-60.525
-65.043
-69.327
-73.378
-77.199
-80.794
-84.169
-87.327
-90.276
-93.021
-95.567
-97.921
-100.086
-102.07
-103.88
-105.522
-107.006
-108.339
-109.529
-110.588
-111.526
-112.349
-113.063
-113.669
-114.171
-114.568
-114.859
-115.043
-115.113
-115.064
-114.893
-114.601
-114.183
-113.635
-112.943
-112.091
-111.067
-109.864
-108.48
-106.913
-105.162
-103.235
-101.151
-98.945
-96.648
-94.28
-91.843
-89.327
-86.721
-84.019
-81.214
-78.299
-75.249
-72.035
-68.634
-65.036
-61.226
-57.174
-52.822
-48.083
-42.885
-37.193
-31.01
-24.365
-17.292
-9.839
-2.072
5.917
14
22.059
30
37.752
45.241
52.372
59.011
64.994
70.187
74.5
77.883
80.314
81.779
82.292
81.906
80.722
78.881
76.499
73.659
70.417
66.83
62.975
58.958
54.903
50.905
47.03
43.327
39.834
36.584
33.587
30.815
28.199
25.646
23.093
20.504
17.865
15.165
12.387
9.503
6.486
3.333
0.044
-3.38
-6.939
-10.634
-14.453
-18.363
-22.311
-26.24
-30.106
-33.883
-37.548
-41.086
-44.481
-47.72
-50.796
-53.713
-56.473
-59.073
-61.508
-63.77
-65.86
-67.783
-69.547
-71.163
-72.637
-73.975
-75.185
-76.273
-77.247
-78.11
-78.866
-79.519
-80.076
-80.546
-80.941
-81.271
-81.55
-81.791
-82.009
-82.217
-82.427
-82.649
-82.897
-83.182
-83.516
-83.911
-84.378
-84.929
-85.576
-86.33
-87.201
-88.193
-89.31
-90.554
-91.928
-93.439
-95.096
-96.907
-98.875
-101.006
-103.301
-105.759
-108.371
-111.121
-113.981
-116.927
-119.94
-123.001
-126.098
-129.214
-132.327
-135.424
-138.484
-141.486
-144.41
-147.238
-149.956
-152.586
-155.162
-157.732
-160.364
-163.103
-165.995
-169.114
-172.512
-176.247
-180.367
-184.866
-189.762
-195.153
-201.103
-207.598
-214.536
-221.624
-228.521
-234.976
-240.662
-245.12
-247.975
-249.061
-248.526
-246.954
-245.228
-244.229
-244.819
-248.188
-254.773
-263.445
-272.751
-280.748
-286.478
-292.343
-300.172
-308.252
-311.844
-301.27
-266.833
-206.389
-122.343
-22.116
82.442
182.71
267.684
324.237
343.609
317.48
246.156
138.395
2.145
-150.577
-308.72
-462.263
-594.85
-693.297
-751.421
-769.741
-759.93
-736.332
-707.085
-675.938
-641.602
-600.585
-554.136
-505.924
-459.762
-419.884
-387.74
-362.49
-342.782
-326.592
-312.134
-298.378
-284.687
-270.522
-255.644
-240.216
-225.02
-211.53
-200.984
-194.011
-190.667
-190.535
-193.116
-197.645
-202.331
-204.361
-201.02
-189.807
-168.6
-135.893
-90.095
-30.698
40.538
120.769
207.566
300.373
399.89
504.758
608.871
701.336
771.599
814.319
831.266
830.913
821.603
808.352
793.034
773.834
749.844
722.32
693.167
665.552
642.09
623.452
609.313
598.844
590.969
584.89
580.056
575.443
569.644
561.92
552.081
540.252
527.005
512.833
498.085
483.497
470.023
458.217
448.315
440.278
433.776
428.578
424.536
421.342
418.592
415.939
413.158
410.164
406.969
403.553
399.817
395.639
390.956
385.77
380.11
374.026
367.566
360.766
353.703
346.483
339.199
331.939
324.738
317.573
310.421
303.259
296.1
289
281.984
275.036
268.125
261.2
254.193
247.032
239.612
231.788
223.452
214.528
204.994
194.883
184.249
173.163
161.675
149.811
137.601
125.081
112.283
99.244
86.014
72.645
59.225
45.871
32.677
19.715
7.021
-5.404
-17.582
-29.556
-41.36
-53.018
-64.548
-75.95
-87.219
-98.343
-109.31
-120.106
-130.735
-141.217
-151.569
-161.803
-171.918
-181.898
-191.717
-201.342
-210.738
-219.876
-228.734
-237.3
-245.57
-253.547
-261.239
-268.66
-275.821
-282.727
-289.385
-295.796
-301.968
-307.911
-313.635
-319.156
-324.489
-329.647
-334.645
-339.495
-344.207
-348.788
-353.243
-357.576
-361.786
-365.878
-369.852
-373.711
-377.459
-381.096
-384.623
-388.043
-391.356
-394.56
-397.655
-400.638
-403.506
-406.255
-408.882
-411.382
-413.752
-415.986
-418.081
-420.033
-421.839
-423.493
-424.995
-426.339
-427.524
-428.547
-429.407
-430.102
-430.633
-430.999
-431.203
-431.247
-431.135
-430.869
-430.456
-429.901
-429.209
-428.386
-427.44
-426.376
-425.202
-423.926
-422.556
-421.098
-419.563
-417.956
-416.287
-414.564
-412.794
-410.984
-409.141
-407.273
-405.384
-403.481
-401.569
-399.652
-397.736
-395.823
-393.917
-392.02
-390.134
-388.259
-386.395
-384.541
-382.695
-380.855
-379.015
-377.172
-375.321
-373.456
-371.57
-369.659
-367.715
-365.731
-363.702
-361.62
-359.478
-357.27
-354.989
-352.63
-350.187
-347.654
-345.028
-342.304
-339.48
-336.553
-333.523
-330.387
-327.147
-323.802
-320.355
-316.806
-313.161
-309.424
-305.6
-301.696
-297.721
-293.686
-289.604
-285.489
-281.355
-277.216
-273.089
-268.991
-264.937
-260.942
-257.019
-253.183
-249.447
-245.828
-242.34
-238.998
-235.816
-232.807
-229.986
-227.361
-224.944
-222.741
-220.751
-218.979
-217.429
-216.106
-215.026
-214.197
-213.622
-213.303
-213.237
-213.411
-213.812
-214.415
-215.182
-216.079
-217.071
-218.124
-219.222
-220.342
-221.462
-222.562
-223.603
-224.547
-225.378
-226.089
-226.686
-227.196
-227.645
-228.081
-228.581
-229.224
-230.101
-231.295
-232.874
-234.887
-237.348
-240.275
-243.739
-247.778
-252.367
-257.364
-262.464
-267.365
-271.863
-275.714
-278.564
-280.097
-280.066
-278.579
-276.256
-273.731
-271.437
-269.87
-269.598
-271.138
-274.929
-279.902
-283.39
-283.207
-278.018
-269.068
-259.197
-248.219
-233.136
-208.136
-167.027
-109.208
-38.466
38.564
113.55
179.925
230.711
258.149
255.075
215.692
139.66
30.416
-104.18
-250.735
-395.32
-520.809
-612.034
-664.351
-679.977
-670.097
-649.81
-626.443
-602.272
-575.286
-540.647
-498.654
-452.836
-406.889
-365.114
-329.615
-300.472
-277.531
-260.2
-247.603
-239.013
-234.009
-232.28
-233.386
-236.762
-241.672
-247.315
-252.992
-258.018
-261.367
-261.268
-255.886
-243.962
-224.391
-197.261
-164.079
-125.2
-80.839
-31.466
23.896
82.369
137.572
183.704
214.15
227.984
230.594
227.273
223.993
223.156
222.896
222.495
221.578
220.855
222.351
226.549
233.131
241.744
251.592
262.29
273.565
284.698
295.311
305.388
314.883
323.866
332.326
340.013
346.963
353.557
359.994
366.333
372.569
378.568
384.326
390.014
395.651
401.088
406.233
411.013
415.426
419.578
423.521
427.242
430.76
434.122
437.383
440.614
443.872
447.16
450.481
453.83
457.204
460.604
464.025
467.448
470.844
474.187
477.454
480.625
483.684
486.608
489.37
491.941
494.295
496.409
498.264
499.843
501.126
502.095
502.734
503.03
502.975
502.562
501.782
500.628
499.095
497.181
494.887
492.214
489.169
485.759
481.994
477.889
473.459
468.725
463.705
458.423
452.904
447.173
441.257
435.185
428.986
422.69
416.33
409.935
403.537
397.167
390.856
384.634
378.531
372.573
366.787
361.2
355.833
350.709
345.847
341.265
336.976
332.993
329.327
325.983
322.967
320.279
317.919
315.882
314.161
312.746
311.625
310.783
310.205
309.87
309.757
309.845
310.109
310.523
311.061
311.695
312.396
313.135
313.883
314.611
315.29
315.89
316.384
316.745
316.946
316.964
316.773
316.352
315.68
314.738
313.511
311.982
310.141
307.976
305.479
302.646
299.473
295.958
292.104
287.912
283.389
278.543
273.381
267.916
262.161
256.129
249.838
243.304
236.546
229.583
222.435
215.123
207.667
200.088
192.406
184.644
176.822
168.961
161.083
153.207
145.353
137.542
129.792
122.12
114.542
107.072
99.725
92.512
85.445
78.532
71.784
65.206
58.806
52.587
46.555
40.711
35.057
29.593
24.317
19.227
14.321
9.596
5.049
0.675
-3.527
-7.562
-11.431
-15.139
-18.69
-22.09
-25.345
-28.462
-31.449
-34.316
-37.074
-39.729
-42.289
-44.759
-47.142
-49.441
-51.658
-53.793
-55.848
-57.825
-59.725
-61.557
-63.327
-65.043
-66.708
-68.324
-69.885
-71.394
-72.857
-74.28
-75.675
-77.061
-78.459
-79.906
-81.444
-83.099
-84.891
-86.83
-88.904
-91.113
-93.45
-95.903
-98.475
-101.164
-103.956
-106.854
-109.852
-112.928
-116.055
-119.173
-122.203
-125.099
-127.834
-130.39
-132.792
-135.051
-137.187
-139.251
-141.274
-143.282
-145.317
-147.386
-149.496
-151.683
-153.977
-156.45
-159.209
-162.313
-165.797
-169.694
-173.987
-178.666
-183.728
-189.114
-194.772
-200.658
-206.704
-212.878
-219.163
-225.512
-231.876
-238.175
-244.283
-250.122
-255.644
-260.786
-265.508
-269.731
-273.354
-276.334
-278.624
-280.175
-280.943
-280.826
-279.737
-277.654
-274.484
-270.104
-264.363
-256.982
-247.723
-236.434
-222.864
-206.811
-188.329
-167.686
-145.423
-122.247
-98.789
-75.787
-54.13
-34.567
-16.656
1.345
21.169
43.794
67.43
88.87
107.897
127.522
154.326
195.259
251.329
318.208
388.66
455.351
513.641
559.878
588.836
591.455
558.549
485.692
373.221
232.459
82.654
-57.205
-166.542
-234.436
-264.112
-263.81
-247.573
-225.516
-196.967
-160.49
-115.617
-66.039
-21.612
11.483
33.302
48.441
63.68
82.249
102.662
121.062
134.624
142.706
146.423
148.152
149.266
150.215
151.5
153.035
154.623
156.436
158.44
160.359
162.046
163.143
163.104
161.833
159.488
156.22
152.279
147.886
143.164
138.397
134.006
130.22
127.139
124.787
123.074
121.958
121.443
121.468
121.909
122.638
123.512
124.415
125.305
126.145
126.895
127.515
127.95
128.168
128.175
127.988
127.619
127.079
126.374
125.519
124.56
123.548
122.537
121.582
120.716
119.965
119.353
118.897
118.611
118.503
118.566
118.788
119.162
119.683
120.346
121.145
122.067
123.094
124.208
125.392
126.626
127.892
129.17
130.441
131.689
132.895
134.044
135.122
136.111
136.993
137.75
138.362
138.811
139.079
139.147
138.998
138.618
137.993
137.112
135.964
134.544
132.844
130.862
128.594
126.041
123.202
120.081
116.681
113.009
109.072
104.88
100.442
95.771
90.883
85.792
80.514
75.067
69.469
63.739
57.895
51.958
45.949
39.886
33.792
27.686
21.588
15.519
9.496
3.537
-2.341
-8.125
-13.802
-19.361
-24.795
-30.096
-35.258
-40.277
-45.147
-49.864
-54.427
-58.833
-63.077
-67.159
-71.078
-74.839
-78.447
-81.908
-85.229
-88.418
-91.487
-94.446
-97.306
-100.076
-102.761
-105.368
-107.902
-110.373
-112.795
-115.174
-117.509
-119.794
-122.022
-124.179
-126.252
-128.215
-130.029
-131.66
-133.068
-134.233
-135.15
-135.81
-136.202
-136.314
-136.125
-135.634
-134.865
-133.829
-132.537
-131.002
-129.227
-127.245
-125.118
-122.893
-120.612
-118.288
-115.891
-113.406
-110.822
-108.118
-105.277
-102.242
-98.907
-95.193
-91.037
-86.377
-81.171
-75.334
-68.736
-61.273
-52.856
-43.425
-32.967
-21.445
-8.805
4.976
19.911
35.952
52.968
70.86
89.54
108.913
128.893
149.342
170.058
190.858
211.573
232.028
252.069
271.496
290.064
307.566
323.814
338.68
352.122
364.08
374.488
383.307
390.501
396.085
400.139
402.729
403.92
403.812
402.513
400.192
397.08
393.372
389.251
384.86
380.289
375.634
370.997
366.452
362.059
357.856
353.85
350.056
346.502
343.185
340.085
337.147
334.276
331.402
328.472
325.451
322.329
319.099
315.751
312.3
308.773
305.2
301.616
298.043
294.493
290.988
287.56
284.246
281.096
278.146
275.416
272.925
270.685
268.697
266.962
265.465
264.181
263.087
262.159
261.378
260.727
260.187
259.737
259.358
259.035
258.751
258.491
258.237
257.959
257.634
257.245
256.776
256.223
255.582
254.853
254.044
253.177
252.268
251.337
250.396
249.446
248.495
247.551
246.62
245.733
244.917
244.183
243.536
242.965
242.436
241.919
241.368
240.714
239.889
238.809
237.39
235.576
233.316
230.603
227.423
223.683
219.326
214.404
209.089
203.711
198.624
194.049
190.247
187.634
186.518
187.015
188.843
191.236
193.447
194.852
194.795
192.587
187.563
180.244
172.763
167.495
166.958
171.023
176.434
182.775
191.226
206.633
238.911
291.652
364.078
451.778
542.28
626.653
697.365
744.836
765.25
752.871
702.721
616.603
495.801
349.077
192.736
43.593
-77.603
-157.965
-196.743
-199.548
-179.812
-148.219
-109.827
-69.224
-27.453
13.202
50.212
85.062
118.12
149.692
178.946
202.318
218.312
226.857
229.102
227.866
225.063
222.319
221.225
222.243
225.444
230.669
237.259
244.661
252.41
259.652
265.491
269.478
271.488
271.755
270.778
268.915
266.439
263.735
261.226
259.241
257.992
257.523
257.761
258.656
260.177
262.289
264.934
268.01
271.407
275.004
278.679
282.355
285.971
289.469
292.801
295.915
298.771
301.363
303.706
305.812
307.689
309.343
310.779
312.036
313.164
314.219
315.262
316.337
317.473
318.702
320.047
321.527
323.154
324.927
326.835
328.874
331.043
333.342
335.772
338.322
340.979
343.729
346.557
349.448
352.386
355.352
358.328
361.298
364.246
367.155
370.012
372.797
375.491
378.072
380.519
382.807
384.914
386.816
388.49
389.913
391.064
391.923
392.471
392.69
392.564
392.078
391.219
389.976
388.338
386.299
383.851
380.992
377.72
374.036
369.943
365.445
360.549
355.266
349.606
343.581
337.207
330.499
323.476
316.157
308.563
300.716
292.64
284.36
275.901
267.29
258.553
249.718
240.811
231.859
222.889
213.926
204.995
196.121
187.327
178.637
170.069
161.646
153.385
145.304
137.417
129.738
122.279
115.052
108.063
101.321
94.831
88.596
82.619
76.9
71.438
66.23
61.272
56.558
52.082
47.835
43.808
39.99
36.371
32.937
29.678
26.579
23.626
20.806
18.105
15.508
13.001
10.57
8.201
5.88
3.594
1.332
-0.921
-3.174
-5.439
-7.726
-10.045
-12.404
-14.811
-17.274
-19.799
-22.392
-25.058
-27.8
-30.622
-33.526
-36.515
-39.588
-42.747
-45.992
-49.322
-52.735
-56.231
-59.808
-63.462
-67.193
-70.996
-74.869
-78.809
-82.813
-86.877
-91
-95.179
-99.41
-103.691
-108.019
-112.391
-116.807
-121.263
-125.758
-130.29
-134.858
-139.463
-144.102
-148.778
-153.488
-158.235
-163.018
-167.838
-172.697
-177.596
-182.535
-187.516
-192.541
-197.612
-202.73
-207.897
-213.113
-218.381
-223.702
-229.076
-234.502
-239.982
-245.513
-251.095
-256.728
-262.41
-268.139
-273.914
-279.733
-285.591
-291.487
-297.416
-303.373
-309.352
-315.348
-321.355
-327.366
-333.374
-339.372
-345.352
-351.308
-357.231
-363.113
-368.947
-374.723
-380.432
-386.067
-391.619
-397.082
-402.447
-407.708
-412.858
-417.895
-422.814
-427.615
-432.296
-436.858
-441.302
-445.631
-449.85
-453.964
-457.974
-461.886
-465.707
-469.448
-473.122
-476.745
-480.336
-483.911
-487.491
-491.102
-494.762
-498.492
-502.306
-506.21
-510.223
-514.37
-518.681
-523.198
-527.959
-532.997
-538.347
-544.048
-550.118
-556.571
-563.408
-570.615
-578.196
-586.169
-594.549
-603.375
-612.667
-622.416
-632.598
-643.16
-654.016
-665.089
-676.29
-687.509
-698.699
-709.822
-720.84
-731.758
-742.523
-753.058
-763.328
-773.245
-782.695
-791.667
-800.187
-808.371
-816.537
-824.95
-833.735
-843.042
-852.899
-863.161
-873.71
-884.228
-894.088
-902.753
-909.92
-915.446
-919.527
-922.575
-924.756
-926.361
-928.123
-930.876
-935.381
-942.138
-951.063
-961.654
-973.692
-986.795
-999.788
-1010.896
-1017.935
-1018.521
-1010.59
-992.448
-961.904
-917.779
-861.129
-793.719
-717.812
-633.387
-537.009
-427.686
-308.975
