Name,Waqar Muhammad
Date of Birth,"Jul 5, 1993"
Recorded Date,2022-11-27 20:45:28 -0500
Classification,High Heart Rate
Symptoms,
Software Version,1.90
Device,"Watch6,7"
Sample Rate,512 hertz


Lead,Lead I
Unit,µV

14.612
35.374
48.973
57.133
61.853
63.777
64.66
64.273
62.154
59.027
55.176
50.941
46.825
42.94
39.328
36.154
33.487
31.331
29.745
28.787
28.45
28.726
29.563
30.842
32.479
34.404
36.521
38.721
40.862
42.785
44.383
45.596
46.38
46.714
46.578
45.954
44.856
43.315
41.364
39.049
36.406
33.46
30.256
26.851
23.325
19.778
16.29
12.906
9.649
6.525
3.546
0.735
-1.885
-4.296
-6.503
-8.517
-10.335
-11.948
-13.349
-14.556
-15.651
-16.769
-18.04
-19.547
-21.328
-23.375
-25.719
-28.466
-31.669
-35.274
-39.101
-42.859
-46.342
-49.496
-52.187
-54.091
-54.967
-54.757
-53.733
-52.647
-52.105
-52.471
-54.374
-58.554
-65.422
-74.21
-82.797
-88.707
-90.465
-89.462
-88.112
-86.23
-80.934
-65.879
-34.312
14.861
78.254
149.123
218.811
280.763
328.922
356.985
358.398
327.198
261.7
163.518
40.376
-93.803
-224.59
-334.95
-411.848
-453.293
-463.153
-452.586
-434.613
-414.041
-391.384
-364.351
-329.201
-286.933
-241.373
-196.223
-155.425
-121.566
-95.484
-77.179
-65.985
-60.718
-60.004
-62.629
-67.246
-72.059
-75.521
-76.831
-75.717
-72.45
-67.585
-61.55
-54.842
-48.269
-42.611
-38.237
-35.185
-33.259
-32.14
-31.627
-31.535
-31.539
-31.251
-30.395
-28.853
-26.635
-23.827
-20.485
-16.647
-12.395
-7.869
-3.241
1.354
5.848
10.225
14.489
18.626
22.614
26.429
30.056
33.498
36.759
39.83
42.704
45.382
47.884
50.253
52.557
54.846
57.151
59.494
61.884
64.329
66.84
69.417
72.046
74.718
77.423
80.159
82.928
85.724
88.536
91.349
94.142
96.898
99.599
102.228
104.768
107.201
109.512
111.687
113.72
115.598
117.309
118.841
120.18
121.314
122.232
122.923
123.375
123.579
123.527
123.214
122.634
121.787
120.668
119.28
117.622
115.699
113.515
111.076
108.388
105.46
102.303
98.927
95.347
91.575
87.629
83.523
79.277
74.908
70.435
65.878
61.256
56.587
51.891
47.187
42.494
37.831
33.214
28.663
24.194
19.823
15.566
11.437
7.447
3.609
-0.067
-3.572
-6.898
-10.04
-12.992
-15.751
-18.314
-20.679
-22.847
-24.819
-26.599
-28.19
-29.597
-30.827
-31.887
-32.786
-33.533
-34.136
-34.607
-34.954
-35.189
-35.322
-35.364
-35.327
-35.22
-35.056
-34.843
-34.594
-34.317
-34.023
-33.718
-33.412
-33.111
-32.822
-32.549
-32.298
-32.073
-31.877
-31.714
-31.584
-31.488
-31.427
-31.4
-31.404
-31.437
-31.495
-31.573
-31.667
-31.77
-31.879
-31.987
-32.089
-32.179
-32.251
-32.299
-32.317
-32.298
-32.238
-32.13
-31.969
-31.751
-31.471
-31.127
-30.718
-30.244
-29.705
-29.102
-28.438
-27.716
-26.937
-26.104
-25.221
-24.288
-23.31
-22.291
-21.238
-20.156
-19.054
-17.943
-16.833
-15.734
-14.655
-13.604
-12.588
-11.61
-10.676
-9.789
-8.957
-8.194
-7.514
-6.926
-6.439
-6.057
-5.777
-5.593
-5.491
-5.446
-5.435
-5.436
-5.43
-5.413
-5.386
-5.356
-5.319
-5.262
-5.173
-5.051
-4.908
-4.757
-4.616
-4.517
-4.516
-4.699
-5.162
-5.97
-7.179
-8.829
-10.941
-13.532
-16.608
-20.132
-24.092
-28.505
-33.308
-38.402
-43.591
-48.522
-52.895
-56.48
-58.903
-59.793
-59.001
-56.475
-52.658
-48.393
-44.178
-40.538
-38.356
-38.335
-40.851
-45.035
-48.033
-46.996
-40.861
-31.853
-23.749
-17.974
-12.21
2.113
33.894
86.926
160.303
244.311
326.143
394.048
436.511
445.111
413.716
339.908
225.116
79.031
-79.764
-230.13
-348.22
-419.201
-443.816
-431.605
-400.721
-367.067
-335.424
-305.229
-271.8
-230.777
-184.094
-136.096
-91.364
-54.515
-27.352
-9.371
0.434
3.631
2.05
-2.896
-9.706
-16.312
-21.02
-23.043
-22.127
-18.6
-13.157
-6.331
1.25
8.581
14.766
19.361
22.291
23.829
24.357
24.128
23.387
22.501
21.887
21.857
22.557
23.973
26.017
28.63
31.79
35.451
39.513
43.844
48.301
52.784
57.254
61.694
66.081
70.386
74.567
78.586
82.437
86.128
89.657
93.022
96.21
99.223
102.085
104.847
107.566
110.282
113.02
115.793
118.611
121.483
124.419
127.415
130.454
133.521
136.606
139.705
142.813
145.923
149.016
152.073
155.071
157.991
160.815
163.526
166.103
168.528
170.785
172.863
174.752
176.441
177.917
179.166
180.174
180.931
181.426
181.646
181.581
181.222
180.563
179.599
178.328
176.746
174.854
172.654
170.148
167.342
164.241
160.856
157.194
153.267
149.089
144.675
140.041
135.204
130.183
124.999
119.67
114.22
108.669
103.039
97.351
91.628
85.891
80.162
74.461
68.81
63.23
57.738
52.356
47.1
41.988
37.036
32.256
27.664
23.27
19.085
15.117
11.373
7.86
4.58
1.537
-1.269
-3.838
-6.174
-8.279
-10.16
-11.823
-13.277
-14.53
-15.593
-16.477
-17.193
-17.754
-18.173
-18.462
-18.634
-18.704
-18.684
-18.587
-18.427
-18.216
-17.967
-17.693
-17.406
-17.116
-16.835
-16.574
-16.34
-16.143
-15.989
-15.886
-15.837
-15.847
-15.919
-16.056
-16.258
-16.525
-16.857
-17.25
-17.701
-18.206
-18.758
-19.352
-19.979
-20.633
-21.304
-21.985
-22.666
-23.341
-24
-24.635
-25.239
-25.802
-26.317
-26.777
-27.173
-27.498
-27.745
-27.909
-27.984
-27.967
-27.856
-27.652
-27.353
-26.963
-26.483
-25.915
-25.264
-24.532
-23.723
-22.838
-21.885
-20.869
-19.797
-18.68
-17.528
-16.354
-15.169
-13.983
-12.807
-11.649
-10.517
-9.415
-8.348
-7.324
-6.353
-5.454
-4.648
-3.948
-3.363
-2.899
-2.556
-2.332
-2.222
-2.205
-2.259
-2.365
-2.507
-2.685
-2.904
-3.164
-3.459
-3.76
-4.045
-4.309
-4.561
-4.818
-5.095
-5.414
-5.807
-6.337
-7.087
-8.139
-9.566
-11.421
-13.734
-16.504
-19.754
-23.566
-27.949
-32.824
-38.014
-43.19
-48.073
-52.524
-56.35
-59.194
-60.828
-61.211
-60.563
-59.673
-59.257
-59.558
-60.992
-64.203
-69.532
-77.081
-85.527
-91.641
-92.855
-88.199
-79.392
-69.63
-59.705
-47.343
-25.795
11.602
66.912
138.272
217.522
294.464
359.621
403.381
417.185
393.335
328.25
222.51
85.005
-66.273
-212.691
-333.428
-414.635
-456.333
-462.909
-447.05
-421.665
-389.967
-355.755
-318.515
-276.225
-233.353
-191.006
-150.887
-116.329
-87.05
-65.039
-51.651
-46.033
-47.812
-54.609
-63.776
-73.327
-81.087
-86.102
-88.239
-87.456
-84.195
-79.113
-72.814
-66.289
-60.61
-56.278
-53.45
-52.036
-51.712
-52.221
-53.361
-54.757
-55.971
-56.722
-56.825
-56.247
-55.076
-53.349
-51.104
-48.417
-45.404
-42.209
-38.956
-35.723
-32.537
-29.406
-26.335
-23.341
-20.438
-17.633
-14.943
-12.372
-9.924
-7.614
-5.442
-3.395
-1.449
0.448
2.349
4.286
6.285
8.358
10.508
12.742
15.06
17.448
19.898
22.4
24.944
27.531
30.157
32.809
35.476
38.137
40.772
43.365
45.897
48.35
50.707
52.952
55.07
57.053
58.89
60.568
62.076
63.401
64.528
65.448
66.148
66.618
66.847
66.828
66.554
66.022
65.23
64.176
62.86
61.284
59.452
57.37
55.042
52.478
49.685
46.675
43.459
40.051
36.466
32.719
28.827
24.808
20.68
16.461
12.17
7.825
3.446
-0.949
-5.34
-9.709
-14.036
-18.305
-22.496
-26.593
-30.579
-34.44
-38.161
-41.73
-45.137
-48.369
-51.419
-54.28
-56.944
-59.406
-61.664
-63.715
-65.557
-67.193
-68.625
-69.855
-70.889
-71.732
-72.391
-72.874
-73.189
-73.344
-73.349
-73.213
-72.948
-72.565
-72.075
-71.49
-70.822
-70.083
-69.285
-68.44
-67.559
-66.653
-65.732
-64.805
-63.884
-62.976
-62.091
-61.236
-60.418
-59.645
-58.922
-58.253
-57.64
-57.085
-56.589
-56.151
-55.771
-55.444
-55.169
-54.94
-54.756
-54.613
-54.508
-54.434
-54.387
-54.36
-54.348
-54.345
-54.339
-54.32
-54.275
-54.195
-54.07
-53.894
-53.658
-53.352
-52.969
-52.501
-51.949
-51.307
-50.566
-49.711
-48.726
-47.608
-46.367
-45.019
-43.577
-42.049
-40.448
-38.792
-37.108
-35.407
-33.686
-31.923
-30.095
-28.195
-26.232
-24.234
-22.224
-20.213
-18.187
-16.131
-14.041
-11.91
-9.72
-7.433
-4.999
-2.404
0.309
3.061
5.776
8.407
10.936
13.367
15.701
17.927
20.031
21.998
23.833
25.527
27.044
28.316
29.26
29.837
30.092
30.122
30.004
29.785
29.469
29.026
28.452
27.739
26.851
25.767
24.428
22.786
20.838
18.607
16.142
13.479
10.56
7.239
3.473
-0.671
-4.992
-9.112
-12.732
-15.65
-17.576
-18.15
-17.163
-14.645
-10.977
-7.027
-3.666
-1.428
-0.777
-2.136
-5.6
-10.911
-17.296
-23.037
-26.03
-24.603
-17.235
-2.381
21.075
53.914
96.547
146.674
199.624
251.284
297.299
337.333
375.826
413.659
449.276
473.589
468.872
423.257
330.802
197.689
45.615
-102.574
-225.116
-307.726
-349.023
-354.765
-333.855
-294.113
-242.599
-183.841
-123.904
-73.068
-36.069
-14.594
-5.919
-0.099
7.969
19.174
32.257
41.82
45.559
44.422
40.086
35.445
32.157
30.564
30.612
31.776
33.733
36.388
39.501
42.905
46.317
49.215
51.401
52.906
53.799
54.274
54.477
54.446
54.334
54.408
54.844
55.771
57.222
59.1
61.318
63.796
66.438
69.167
71.903
74.569
77.127
79.574
81.921
84.201
86.425
88.582
90.656
92.616
94.453
96.177
97.805
99.366
100.886
102.386
103.893
105.44
107.043
108.714
110.45
112.235
114.058
115.92
117.819
119.753
121.722
123.717
125.731
127.755
129.779
131.791
133.777
135.72
137.604
139.416
141.144
142.777
144.307
145.72
147.005
148.151
149.147
149.982
150.645
151.123
151.406
151.484
151.35
150.995
150.414
149.602
148.556
147.272
145.75
143.989
141.993
139.762
137.302
134.618
131.716
128.604
125.293
121.791
118.111
114.266
110.269
106.134
101.877
97.514
93.06
88.531
83.946
79.319
74.668
70.009
65.36
60.737
56.156
51.633
47.183
42.821
38.561
34.415
30.397
26.516
22.783
19.207
15.796
12.556
9.493
6.61
3.911
1.398
-0.931
-3.074
-5.035
-6.814
-8.418
-9.849
-11.114
-12.219
-13.17
-13.977
-14.647
-15.188
-15.611
-15.923
-16.135
-16.257
-16.297
-16.266
-16.173
-16.029
-15.842
-15.622
-15.38
-15.123
-14.861
-14.602
-14.351
-14.115
-13.901
-13.712
-13.552
-13.423
-13.328
-13.269
-13.246
-13.26
-13.309
-13.391
-13.505
-13.646
-13.811
-13.996
-14.193
-14.398
-14.605
-14.808
-15.003
-15.183
-15.344
-15.478
-15.581
-15.647
-15.67
-15.644
-15.562
-15.418
-15.206
-14.924
-14.567
-14.133
-13.622
-13.034
-12.371
-11.636
-10.832
-9.96
-9.024
-8.026
-6.969
-5.855
-4.689
-3.476
-2.22
-0.931
0.382
1.713
3.052
4.396
5.74
7.078
8.404
9.721
11.024
12.309
13.564
14.763
15.887
16.927
17.873
18.716
19.455
20.082
20.604
21.045
21.428
21.775
22.1
22.393
22.65
22.882
23.106
23.359
23.662
24.002
24.367
24.762
25.185
25.644
26.105
26.454
26.587
26.403
25.81
24.788
23.295
21.239
18.578
15.326
11.61
7.725
3.968
0.512
-2.463
-4.745
-6.172
-6.65
-6.422
-6.099
-6.424
-7.991
-11.166
-16.405
-24.122
-34.355
-46.527
-58.644
-67.552
-70.636
-66.497
-56.12
-41.852
-24.75
-3.983
25.4
68.637
127.874
202.348
284.183
362.627
426.669
464.773
468.533
432.204
354.747
239.16
94.592
-62.292
-213.726
-339.356
-423.594
-464.186
-466.153
-442.811
-409.845
-373.99
-337.27
-298.055
-252.714
-202.945
-153.138
-107.787
-71.587
-46.395
-31.483
-25.435
-26.144
-31.35
-39.214
-47.878
-55.458
-60.548
-62.572
-61.62
-58.226
-53.186
-47.221
-41.071
-35.598
-31.551
-29.255
-28.623
-29.342
-31.022
-33.362
-36.102
-38.905
-41.369
-43.193
-44.249
-44.529
-44.103
-43.027
-41.316
-39.02
-36.252
-33.151
-29.868
-26.512
-23.122
-19.715
-16.313
-12.943
-9.644
-6.456
-3.384
-0.423
2.426
5.158
7.765
10.248
12.64
14.997
17.381
19.836
22.388
25.049
27.831
30.742
33.788
36.966
40.258
43.647
47.122
50.679
54.312
58.011
61.759
65.532
69.307
73.063
76.78
80.438
84.015
87.491
90.849
94.073
97.154
100.076
102.824
105.382
107.735
109.867
111.765
113.415
114.804
115.921
116.756
117.301
117.553
117.506
117.158
116.508
115.556
114.305
112.759
110.922
108.801
106.404
103.741
100.823
97.663
94.274
90.671
86.872
82.893
78.752
74.469
70.061
65.547
60.948
56.283
51.57
46.83
42.08
37.341
32.63
27.965
23.362
18.837
14.405
10.079
5.871
1.794
-2.144
-5.933
-9.566
-13.036
-16.338
-19.467
-22.421
-25.199
-27.8
-30.225
-32.476
-34.557
-36.473
-38.229
-39.831
-41.288
-42.607
-43.797
-44.868
-45.829
-46.691
-47.464
-48.157
-48.782
-49.349
-49.867
-50.346
-50.797
-51.227
-51.647
-52.065
-52.489
-52.928
-53.387
-53.875
-54.397
-54.958
-55.563
-56.215
-56.917
-57.672
-58.481
-59.344
-60.263
-61.235
-62.259
-63.331
-64.449
-65.607
-66.8
-68.022
-69.267
-70.527
-71.796
-73.069
-74.34
-75.601
-76.847
-78.073
-79.272
-80.439
-81.569
-82.655
-83.69
-84.67
-85.592
-86.451
-87.243
-87.968
-88.623
-89.211
-89.733
-90.19
-90.582
-90.91
-91.177
-91.384
-91.533
-91.624
-91.66
-91.644
-91.583
-91.487
-91.363
-91.215
-91.049
-90.869
-90.681
-90.488
-90.29
-90.08
-89.86
-89.635
-89.421
-89.239
-89.103
-89.02
-88.992
-89.025
-89.124
-89.287
-89.495
-89.718
-89.923
-90.101
-90.26
-90.414
-90.568
-90.71
-90.813
-90.85
-90.819
-90.725
-90.56
-90.31
-89.964
-89.531
-89.078
-88.721
-88.559
-88.659
-89.055
-89.744
-90.748
-92.16
-94.013
-96.244
-98.708
-101.127
-103.232
-104.92
-106.065
-106.361
-105.626
-103.851
-101.236
-98.56
-96.738
-96.263
-97.526
-101.171
-107.541
-116.381
-127.134
-137.549
-143.958
-144.623
-138.619
-125.561
-108.425
-88.082
-62.123
-29.08
16.16
77.767
151.972
230.862
299.663
339.922
340.639
299.31
222.505
122.671
9.465
-109.625
-227.956
-336.226
-419.808
-468.521
-479.603
-459.861
-425.375
-387.523
-351.505
-317.371
-279.675
-237.336
-193.169
-150.663
-114.912
-88.48
-70.89
-61.149
-57.652
-58.556
-62.613
-68.514
-74.39
-78.639
-80.487
-79.712
-76.58
-71.709
-65.566
-58.607
-51.678
-45.619
-40.844
-37.478
-35.346
-34.111
-33.571
-33.563
-33.772
-33.829
-33.464
-32.502
-30.917
-28.779
-26.119
-22.971
-19.396
-15.501
-11.428
-7.297
-3.181
0.89
4.913
8.882
12.783
16.603
20.335
23.963
27.482
30.885
34.157
37.299
40.321
43.249
46.136
49.03
51.966
54.967
58.046
61.204
64.45
67.78
71.182
74.645
78.16
81.717
85.316
88.949
92.606
96.27
99.922
103.539
107.102
110.592
113.987
117.271
120.424
123.43
126.279
128.959
131.455
133.755
135.843
137.705
139.329
140.701
141.809
142.642
143.189
143.442
143.397
143.047
142.391
141.426
140.153
138.573
136.689
134.507
132.033
129.275
126.242
122.947
119.401
115.621
111.621
107.419
103.034
98.484
93.79
88.973
84.051
79.047
73.98
68.874
63.748
58.623
53.521
48.461
43.465
38.552
33.74
29.048
24.493
20.088
15.85
11.792
7.925
4.26
0.807
-2.427
-5.435
-8.211
-10.752
-13.057
-15.124
-16.956
-18.553
-19.921
-21.065
-21.991
-22.706
-23.22
-23.542
-23.682
-23.65
-23.459
-23.121
-22.649
-22.056
-21.355
-20.561
-19.686
-18.746
-17.753
-16.722
-15.665
-14.595
-13.525
-12.467
-11.433
-10.434
-9.479
-8.581
-7.747
-6.986
-6.306
-5.713
-5.212
-4.807
-4.501
-4.296
-4.193
-4.191
-4.29
-4.487
-4.78
-5.165
-5.638
-6.192
-6.823
-7.522
-8.283
-9.097
-9.956
-10.849
-11.768
-12.704
-13.649
-14.592
-15.526
-16.442
-17.33
-18.183
-18.993
-19.751
-20.449
-21.078
-21.633
-22.108
-22.498
-22.8
-23.012
-23.134
-23.168
-23.115
-22.977
-22.758
-22.458
-22.083
-21.633
-21.113
-20.525
-19.876
-19.171
-18.422
-17.638
-16.828
-16.003
-15.169
-14.336
-13.513
-12.706
-11.917
-11.148
-10.408
-9.707
-9.07
-8.515
-8.048
-7.674
-7.398
-7.218
-7.136
-7.141
-7.205
-7.298
-7.397
-7.486
-7.576
-7.671
-7.763
-7.832
-7.848
-7.794
-7.687
-7.551
-7.386
-7.203
-7.013
-6.847
-6.813
-7.019
-7.547
-8.469
-9.806
-11.562
-13.782
-16.541
-19.832
-23.562
-27.537
-31.461
-35.123
-38.418
-41.204
-43.245
-44.355
-44.508
-43.918
-43.141
-42.727
-42.918
-43.796
-45.524
-48.218
-51.818
-56.036
-59.231
-58.68
-52.298
-38.601
-19.107
1.666
20.423
35.139
49.658
73.399
113.195
173.927
251.008
328.37
390.492
421.207
410.204
360.853
279.034
172.682
53.69
-69.809
-187.368
-283.287
-346.85
-373.376
-365.771
-337.264
-301.563
-265.943
-232.482
-198.111
-159.056
-116.251
-73.284
-34.597
-4.394
15.8
26.45
28.725
24.374
15.182
2.866
-10.625
-23.306
-33.545
-40.425
-43.725
-43.652
-40.703
-35.517
-28.877
-21.735
-15.035
-9.306
-4.682
-1.111
1.598
3.635
5.171
6.482
7.883
9.537
11.465
13.616
15.877
18.177
20.499
22.795
25.009
27.108
29.067
30.895
32.631
34.298
35.91
37.481
39.014
40.522
42.028
43.545
45.081
46.64
48.219
49.819
51.447
53.108
54.809
56.552
58.338
60.168
62.043
63.963
65.929
67.934
69.972
72.035
74.116
76.209
78.31
80.409
82.498
84.568
86.608
88.608
90.556
92.439
94.242
95.954
97.562
99.054
100.419
101.645
102.724
103.645
104.4
104.98
105.378
105.585
105.597
105.407
105.011
104.407
103.592
102.565
101.328
99.881
98.229
96.374
94.323
92.081
89.656
87.058
84.295
81.379
78.321
75.134
71.831
68.427
64.935
61.37
57.747
54.08
50.385
46.677
42.969
39.277
35.615
31.995
28.433
24.94
21.529
18.212
15
11.902
8.928
6.086
3.385
0.829
-1.574
-3.822
-5.91
-7.837
-9.601
-11.203
-12.643
-13.923
-15.046
-16.016
-16.836
-17.513
-18.051
-18.457
-18.738
-18.9
-18.952
-18.902
-18.757
-18.526
-18.217
-17.838
-17.398
-16.905
-16.368
-15.794
-15.193
-14.571
-13.937
-13.299
-12.663
-12.037
-11.426
-10.836
-10.272
-9.737
-9.236
-8.77
-8.341
-7.953
-7.605
-7.298
-7.034
-6.809
-6.624
-6.477
-6.365
-6.286
-6.236
-6.211
-6.207
-6.221
-6.25
-6.291
-6.34
-6.393
-6.447
-6.5
-6.547
-6.586
-6.61
-6.617
-6.604
-6.567
-6.504
-6.414
-6.296
-6.15
-5.978
-5.785
-5.572
-5.34
-5.091
-4.829
-4.556
-4.274
-3.981
-3.678
-3.368
-3.058
-2.755
-2.466
-2.196
-1.949
-1.727
-1.537
-1.38
-1.253
-1.15
-1.068
-1.009
-0.988
-1.026
-1.139
-1.333
-1.609
-1.969
-2.417
-2.948
-3.544
-4.169
-4.79
-5.392
-5.982
-6.578
-7.186
-7.802
-8.396
-8.943
-9.436
-9.874
-10.258
-10.581
-10.835
-11.041
-11.253
-11.566
-12.086
-12.875
-13.964
-15.378
-17.118
-19.229
-21.822
-24.888
-28.317
-31.925
-35.359
-38.32
-40.642
-42.009
-42.049
-40.684
-37.996
-34.531
-31.451
-29.735
-30.152
-33.543
-40.358
-50.38
-63.073
-76.904
-89.176
-97.295
-98.616
-90.315
-71.057
-41.408
-2.536
42.988
93.14
148.517
208.771
271.27
329.217
371.751
387.252
366.62
307.74
212.173
86.893
-53.192
-192.161
-309.95
-388.522
-423.449
-418.513
-385.573
-339.366
-286.809
-230.789
-172.989
-117.24
-71.529
-42.053
-30.973
-33.634
-40.635
-46.036
-47.538
-46.508
-47.235
-50.801
-55.477
-59.406
-60.507
-58.244
-53.604
-47.499
-40.554
-33.432
-26.854
-21.21
-16.698
-13.321
-10.741
-8.693
-7.061
-5.621
-4.105
-2.376
-0.348
1.986
4.511
7.168
9.931
12.751
15.592
18.421
21.204
23.92
26.563
29.124
31.601
33.995
36.307
38.549
40.731
42.869
44.981
47.077
49.167
51.257
53.348
55.446
57.562
59.704
61.885
64.115
66.399
68.742
71.149
73.618
76.15
78.737
81.371
84.045
86.752
89.487
92.243
95.013
97.785
100.55
103.297
106.012
108.683
111.292
113.826
116.267
118.602
120.816
122.894
124.824
126.592
128.186
129.593
130.803
131.804
132.588
133.145
133.466
133.547
133.381
132.965
132.295
131.371
130.193
128.761
127.079
125.151
122.982
120.579
117.95
115.106
112.056
108.812
105.388
101.797
98.054
94.175
90.176
86.073
81.884
77.624
73.312
68.964
64.596
60.226
55.868
51.54
47.255
43.029
38.873
34.803
30.828
26.961
23.211
19.587
16.098
12.75
9.548
6.498
3.602
0.862
-1.722
-4.149
-6.422
-8.544
-10.517
-12.346
-14.037
-15.595
-17.029
-18.346
-19.553
-20.659
-21.674
-22.607
-23.467
-24.265
-25.008
-25.707
-26.37
-27.006
-27.624
-28.231
-28.837
-29.449
-30.073
-30.718
-31.388
-32.09
-32.828
-33.606
-34.426
-35.291
-36.201
-37.155
-38.155
-39.198
-40.282
-41.405
-42.563
-43.753
-44.968
-46.203
-47.451
-48.706
-49.959
-51.203
-52.429
-53.629
-54.796
-55.922
-57
-58.022
-58.982
-59.872
-60.685
-61.415
-62.054
-62.596
-63.036
-63.367
-63.587
-63.693
-63.684
-63.561
-63.325
-62.978
-62.523
-61.963
-61.303
-60.544
-59.69
-58.744
-57.709
-56.592
-55.4
-54.14
-52.825
-51.464
-50.068
-48.648
-47.211
-45.764
-44.315
-42.866
-41.422
-39.988
-38.575
-37.203
-35.893
-34.657
-33.507
-32.447
-31.474
-30.588
-29.78
-29.03
-28.317
-27.621
-26.927
-26.237
-25.559
-24.896
-24.242
-23.575
-22.871
-22.129
-21.365
-20.603
-19.867
-19.185
-18.594
-18.156
-17.96
-18.091
-18.625
-19.615
-21.093
-23.074
-25.602
-28.774
-32.605
-36.996
-41.74
-46.475
-50.868
-54.701
-57.688
-59.441
-59.769
-58.704
-56.587
-54.294
-52.675
-52.29
-53.758
-57.577
-63.79
-72.092
-81.527
-90.054
-95.567
-96.282
-90.089
-75.184
-50.432
-14.917
30.168
80.764
132.925
182.477
227.067
268.888
308.063
342.322
366.701
368.159
335.58
263.57
150.269
8.154
-142.115
-280.533
-384.3
-441.98
-457.877
-440.331
-404.197
-362.257
-315.571
-265.64
-214.488
-163.614
-121.09
-90.878
-70.713
-58.748
-49.576
-40.664
-34.821
-32.645
-34.563
-39.666
-43.955
-45.429
-43.93
-39.55
-33.353
-26.329
-18.768
-11.362
-5.236
-0.91
1.472
1.987
1.152
-0.588
-3.021
-5.806
-8.514
-10.891
-12.728
-13.88
-14.384
-14.254
-13.478
-12.095
-10.132
-7.632
-4.682
-1.396
2.096
5.696
9.343
13.004
16.651
20.255
23.775
27.175
30.453
33.604
36.62
39.493
42.205
44.759
47.186
49.54
51.88
54.248
56.665
59.142
61.689
64.311
67.009
69.772
72.577
75.407
78.252
81.104
83.959
86.807
89.627
92.399
95.101
97.713
100.217
102.595
104.829
106.903
108.805
110.528
112.065
113.408
114.549
115.479
116.189
116.67
116.917
116.921
116.677
116.181
115.432
114.429
113.176
111.675
109.932
107.954
105.749
103.327
100.698
97.873
94.866
91.69
88.36
84.893
81.305
77.612
73.834
69.987
66.091
62.164
58.223
54.285
50.368
46.487
42.66
38.903
35.231
31.658
28.199
24.868
21.676
18.635
15.754
13.042
10.504
8.146
5.971
3.982
2.178
0.56
-0.875
-2.129
-3.207
-4.113
-4.856
-5.441
-5.878
-6.176
-6.344
-6.394
-6.335
-6.178
-5.934
-5.614
-5.228
-4.787
-4.302
-3.783
-3.241
-2.686
-2.128
-1.577
-1.042
-0.531
-0.05
0.392
0.793
1.146
1.448
1.699
1.896
2.038
2.127
2.161
2.145
2.08
1.971
1.821
1.636
1.423
1.187
0.937
0.678
0.416
0.159
-0.089
-0.321
-0.531
-0.714
-0.864
-0.977
-1.047
-1.068
-1.035
-0.944
-0.792
-0.578
-0.299
0.044
0.45
0.915
1.435
2.004
2.617
3.27
3.956
4.67
5.404
6.153
6.914
7.679
8.439
9.184
9.902
10.586
11.228
11.821
12.356
12.829
13.234
13.571
13.842
14.04
14.153
14.162
14.046
13.788
13.383
12.821
12.092
11.195
10.138
8.943
7.649
6.277
4.829
3.306
1.698
0.012
-1.727
-3.499
-5.288
-7.078
-8.861
-10.622
-12.331
-13.988
-15.631
-17.336
-19.228
-21.402
-23.899
-26.738
-29.929
-33.534
-37.602
-42.099
-46.878
-51.673
-56.237
-60.461
-64.263
-67.415
-69.728
-71.149
-71.859
-72.599
-74.155
-76.917
-81.328
-87.966
-97.191
-109.108
-122.394
-133.945
-141.208
-142.874
-139.986
-135.204
-128.278
-116.443
-94.942
-58.593
-7.458
54.388
121.664
187.041
242.976
282.622
296.866
277.157
221.611
132.319
15.468
-116.624
-252.147
-379.127
-482.34
-550.357
-578.616
-566.896
-522.792
-460.388
-390.592
-324.386
-272.021
-234.241
-209.877
-194.749
-179.744
-162.32
-142.896
-123.119
-108.4
-100.308
-97.449
-98.233
-99.373
-98.846
-96.643
-92.928
-88.194
-83.011
-77.526
-71.983
-67.056
-63.39
-61.268
-60.671
-61.293
-62.757
-64.82
-67.274
-69.801
-71.988
-73.531
-74.273
-74.189
-73.346
-71.796
-69.548
-66.632
-63.155
-59.235
-55.012
-50.634
-46.17
-41.665
-37.173
-32.736
-28.41
-24.249
-20.266
-16.45
-12.796
-9.301
-5.966
-2.794
0.244
3.195
6.107
9.039
12.025
15.084
18.234
21.487
24.85
28.326
31.903
35.555
39.267
43.028
46.826
50.653
54.49
58.317
62.109
65.847
69.507
73.072
76.52
79.831
82.989
85.979
88.791
91.412
93.834
96.042
98.024
99.77
101.266
102.505
103.476
104.17
104.582
104.707
104.543
104.091
103.352
102.329
101.026
99.452
97.613
95.52
93.181
90.61
87.82
84.824
81.64
78.282
74.768
71.117
67.348
63.479
59.529
55.518
51.464
47.387
43.306
39.238
35.203
31.217
27.297
23.46
19.721
16.095
12.594
9.231
6.014
2.953
0.055
-2.674
-5.231
-7.612
-9.816
-11.843
-13.695
-15.372
-16.879
-18.219
-19.398
-20.421
-21.296
-22.03
-22.631
-23.108
-23.469
-23.725
-23.884
-23.956
-23.949
-23.874
-23.739
-23.551
-23.32
-23.051
-22.753
-22.432
-22.093
-21.743
-21.384
-21.021
-20.655
-20.288
-19.92
-19.552
-19.18
-18.803
-18.418
-18.024
-17.617
-17.195
-16.755
-16.292
-15.804
-15.287
-14.737
-14.149
-13.52
-12.845
-12.121
-11.345
-10.516
-9.631
-8.69
-7.695
-6.649
-5.554
-4.415
-3.233
-2.014
-0.761
0.52
1.826
3.154
4.502
5.862
7.224
8.579
9.915
11.225
12.502
13.738
14.924
16.052
17.123
18.14
19.103
20.006
20.831
21.554
22.157
22.631
22.97
23.17
23.223
23.131
22.913
22.608
22.25
21.857
21.421
20.923
20.357
19.733
19.08
18.428
17.788
17.16
16.549
15.972
15.423
14.876
14.261
13.45
12.337
10.875
9.036
6.827
4.314
1.482
-1.754
-5.364
-9.307
-13.509
-17.704
-21.694
-25.533
-29.045
-31.676
-33.171
-33.372
-32.094
-30.932
-31.447
-33.106
-36.743
-40.792
-41.576
-40.793
-38.954
-38.361
-46.516
-63.435
-85.202
-104.826
-107.595
-83.305
-30.576
47.248
139.549
233.728
322.507
397.646
450.298
471.603
449.382
377.333
256.19
95.451
-84.206
-259.417
-406.53
-508.684
-560.895
-567.892
-541.029
-491.153
-427.937
-357.495
-285.541
-221.546
-170.268
-133.873
-110.478
-91.491
-72.928
-54.268
-36.916
-25.984
-22.916
-25.827
-32.24
-38.448
-42.202
-43.287
-41.912
-38.627
-34.092
-28.766
-23.26
-18.384
-14.875
-13.039
-12.78
-13.837
-15.835
-18.439
-21.347
-24.133
-26.34
-27.694
-28.089
-27.526
-26.093
-23.854
-20.841
-17.146
-12.911
-8.276
-3.392
1.618
6.692
11.776
16.806
21.722
26.464
30.995
35.307
39.405
43.286
46.95
50.395
53.634
56.702
59.641
62.5
65.327
68.153
70.998
73.882
76.815
79.802
82.844
85.926
89.028
92.139
95.249
98.35
101.431
104.478
107.471
110.394
113.228
115.955
118.559
121.023
123.334
125.479
127.447
129.232
130.826
132.223
133.412
134.387
135.137
135.656
135.936
135.972
135.756
135.286
134.56
133.576
132.337
130.845
129.104
127.117
124.892
122.435
119.754
116.858
113.759
110.466
106.994
103.355
99.565
95.637
91.589
87.436
83.195
78.881
74.512
70.103
65.671
61.231
56.799
52.39
48.019
43.7
39.446
35.271
31.187
27.203
23.329
19.574
15.945
12.448
9.088
5.868
2.793
-0.136
-2.918
-5.553
-8.041
-10.386
-12.588
-14.653
-16.585
-18.387
-20.067
-21.629
-23.079
-24.423
-25.667
-26.815
-27.875
-28.85
-29.747
-30.569
-31.323
-32.012
-32.641
-33.212
-33.729
-34.192
-34.604
-34.965
-35.274
-35.531
-35.735
-35.884
-35.976
-36.009
-35.982
-35.892
-35.735
-35.509
-35.21
-34.836
-34.382
-33.845
-33.223
-32.512
-31.712
-30.82
-29.839
-28.77
-27.616
-26.379
-25.064
-23.676
-22.218
-20.696
-19.114
-17.474
-15.784
-14.048
-12.274
-10.471
-8.651
-6.825
-5.006
-3.205
-1.432
0.303
1.991
3.628
5.208
6.727
8.175
9.532
10.78
11.906
12.896
13.745
14.455
15.027
15.47
15.804
16.05
16.228
16.354
16.429
16.443
16.388
16.265
16.092
15.894
15.672
15.422
15.13
14.77
14.319
13.734
12.938
11.859
10.431
8.58
6.266
3.472
0.186
-3.57
-7.804
-12.591
-17.918
-23.674
-29.643
-35.46
-40.786
-45.405
-49.023
-51.213
-51.72
-50.536
-48.084
-45.339
-43.207
-42.374
-43.525
-47.398
-54.669
-64.665
-74.917
-82.332
-83.559
-78.722
-71.716
-64.412
-57.558
-46.162
-18.615
32.057
109.254
208.149
312.967
407.758
475.681
504.757
490.609
431.589
332.601
199.286
39.766
-131.113
-297.711
-440.311
-540.013
-588.147
-584.685
-537.917
-463.745
-377.854
-292.2
-218.485
-163.304
-126.906
-107.619
-97.898
-89.112
-78.525
-65.843
-54.277
-48.823
-49.839
-55.151
-61.814
-66.064
-66.575
-63.919
-58.636
-51.556
-43.475
-34.925
-26.761
-20.01
-15.1
-11.993
-10.471
-10.117
-10.585
-11.661
-12.996
-14.147
-14.834
-14.876
-14.207
-12.907
-11.016
-8.538
-5.508
-1.988
1.936
6.135
10.477
14.876
19.28
23.658
27.986
32.228
36.34
40.286
44.057
47.658
51.087
54.337
57.398
60.275
62.997
65.621
68.207
70.799
73.422
76.089
78.812
81.604
84.472
87.411
90.406
93.441
96.508
99.604
102.726
105.864
109.003
112.121
115.198
118.215
121.156
124.003
126.737
129.343
131.805
134.113
136.259
138.232
140.02
141.611
142.991
144.15
145.077
145.76
146.19
146.357
146.255
145.88
145.227
144.296
143.086
141.598
139.837
137.806
135.511
132.962
130.166
127.134
123.878
120.412
116.75
112.907
108.898
104.743
100.457
96.06
91.571
87.006
82.386
77.727
73.049
68.37
63.707
59.077
54.498
49.985
45.557
41.227
37.01
32.919
28.966
25.162
21.516
18.036
14.729
11.6
8.652
5.888
3.311
0.921
-1.281
-3.298
-5.13
-6.781
-8.253
-9.551
-10.682
-11.649
-12.46
-13.12
-13.635
-14.012
-14.257
-14.376
-14.373
-14.255
-14.026
-13.692
-13.26
-12.737
-12.128
-11.439
-10.675
-9.843
-8.947
-7.991
-6.979
-5.913
-4.798
-3.637
-2.434
-1.192
0.084
1.389
2.718
4.064
5.422
6.788
8.158
9.529
10.895
12.255
13.607
14.948
16.276
17.583
18.86
20.099
21.294
22.438
23.527
24.555
25.518
26.417
27.259
28.048
28.783
29.458
30.053
30.556
30.962
31.269
31.477
31.584
31.595
31.526
31.41
31.281
31.153
31.021
30.86
30.655
30.398
30.097
29.773
29.425
29.051
28.657
28.254
27.847
27.418
26.906
26.213
25.252
23.964
22.323
20.34
18.016
15.376
12.441
9.171
5.594
1.8
-2.09
-5.864
-9.309
-12.295
-14.607
-15.807
-15.615
-14.05
-11.419
-8.458
-5.862
-4.133
-3.918
-6.1
-11.505
-19.443
-27.769
-34.302
-36.624
-35.607
-35.163
-35.278
-34.741
-28.955
-7.537
32.712
91.051
165.036
243.764
318.256
379.857
416.554
418.987
379.404
295.568
170.753
15.757
-150.446
-309.51
-440.329
-525.585
-562.703
-554.452
-510.939
-450.227
-382.918
-318.114
-265.364
-224.156
-193.502
-170.27
-145.76
-118.026
-88.502
-59.929
-38.422
-25.791
-20.43
-20.488
-22.747
-25.309
-27.682
-29.043
-29.125
-28.089
-25.987
-23.119
-20.001
-17.006
-14.58
-13.297
-13.308
-14.477
-16.624
-19.439
-22.608
-25.885
-28.926
-31.337
-32.925
-33.626
-33.439
-32.462
-30.754
-28.362
-25.405
-22.035
-18.405
-14.657
-10.866
-7.068
-3.31
0.355
3.878
7.219
10.376
13.365
16.192
18.864
21.388
23.783
26.087
28.349
30.621
32.956
35.389
37.942
40.634
43.477
46.473
49.622
52.908
56.311
59.812
63.397
67.051
70.757
74.494
78.236
81.958
85.632
89.233
92.736
96.115
99.35
102.418
105.303
107.985
110.452
112.688
114.675
116.399
117.844
118.993
119.835
120.357
120.547
120.399
119.905
119.062
117.869
116.327
114.438
112.206
109.639
106.745
103.533
100.016
96.209
92.126
87.784
83.201
78.398
73.395
68.214
62.878
57.408
51.828
46.16
40.429
34.656
28.864
23.076
17.313
11.596
5.947
0.384
-5.072
-10.404
-15.596
-20.633
-25.5
-30.187
-34.682
-38.977
-43.066
-46.942
-50.602
-54.042
-57.261
-60.259
-63.037
-65.597
-67.942
-70.075
-72.003
-73.732
-75.269
-76.621
-77.795
-78.799
-79.642
-80.331
-80.875
-81.279
-81.552
-81.701
-81.735
-81.661
-81.488
-81.223
-80.872
-80.444
-79.945
-79.381
-78.758
-78.08
-77.35
-76.573
-75.753
-74.894
-74
-73.075
-72.123
-71.151
-70.165
-69.169
-68.167
-67.163
-66.158
-65.158
-64.162
-63.171
-62.184
-61.203
-60.235
-59.287
-58.365
-57.472
-56.612
-55.787
-55.002
-54.259
-53.553
-52.878
-52.231
-51.613
-51.039
-50.532
-50.108
-49.772
-49.528
-49.379
-49.33
-49.378
-49.504
-49.674
-49.854
-50.031
-50.217
-50.43
-50.679
-50.959
-51.244
-51.51
-51.754
-51.973
-52.168
-52.329
-52.454
-52.567
-52.733
-53.05
-53.626
-54.524
-55.772
-57.388
-59.363
-61.72
-64.56
-67.876
-71.567
-75.465
-79.257
-82.695
-85.678
-87.96
-89.16
-89.146
-87.946
-86.057
-84.526
-84.1
-85.329
-88.953
-95.541
-105.328
-117.466
-129.257
-137.523
-139.621
-135.758
-128.821
-120.197
-110.525
-95.586
-66.763
-19.402
49.258
135.111
224.433
302.623
354.563
367.449
336.74
264.098
154.095
17.388
-130.451
-274.14
-394.779
-477.432
-520.196
-526.002
-505.437
-472.282
-430.083
-382.222
-331.956
-279.367
-231.694
-193.348
-162.79
-140.366
-122.679
-107.598
-97.947
-94.139
-95.633
-101.211
-106.995
-110.171
-109.911
-106.024
-99.151
-90.235
-80.014
-69.229
-58.936
-50.165
-43.363
-38.645
-35.836
-34.448
-34.076
-34.414
-35.053
-35.605
-35.848
-35.606
-34.779
-33.393
-31.449
-28.945
-25.911
-22.368
-18.353
-13.94
-9.235
-4.365
0.571
5.514
10.431
15.293
20.076
24.739
29.252
33.613
37.82
41.866
45.74
49.425
52.924
56.271
59.518
62.725
65.936
69.175
72.455
75.79
79.185
82.644
86.158
89.703
93.266
96.836
100.408
103.977
107.533
111.058
114.53
117.927
121.229
124.418
127.474
130.378
133.113
135.666
138.025
140.185
142.135
143.865
145.364
146.62
147.625
148.368
148.843
149.039
148.951
148.576
147.911
146.958
145.717
144.192
142.388
140.311
137.969
135.371
132.528
129.45
126.152
122.647
118.95
115.078
111.048
106.876
102.581
98.182
93.697
89.143
84.538
79.9
75.245
70.592
65.957
61.356
56.805
52.32
47.914
43.602
39.396
35.307
31.346
27.521
23.84
20.309
16.934
13.718
10.666
7.78
5.06
2.508
0.121
-2.101
-4.161
-6.063
-7.809
-9.405
-10.855
-12.163
-13.334
-14.371
-15.28
-16.065
-16.73
-17.28
-17.718
-18.05
-18.279
-18.41
-18.447
-18.392
-18.249
-18.021
-17.71
-17.32
-16.853
-16.309
-15.693
-15.007
-14.256
-13.444
-12.574
-11.649
-10.674
-9.651
-8.585
-7.478
-6.331
-5.144
-3.922
-2.669
-1.391
-0.093
1.218
2.536
3.85
5.15
6.428
7.679
8.9
10.085
11.228
12.318
13.34
14.285
15.148
15.92
16.595
17.17
17.648
18.044
18.386
18.692
18.975
19.245
19.5
19.752
20.012
20.277
20.553
20.834
21.105
21.367
21.613
21.808
21.906
21.834
21.494
20.814
19.732
18.185
16.131
13.507
10.252
6.359
1.826
-3.307
-8.997
-15.28
-22.114
-29.334
-36.693
-43.824
-50.377
-56.176
-60.978
-64.379
-66.197
-66.402
-65.298
-63.606
-61.762
-60.07
-59.077
-59.369
-61.465
-64.647
-66.43
-64.589
-57.542
-46.887
-37.464
-30.335
-24.38
-14.443
10.061
52.444
111.683
184.057
257.398
323.131
374.326
399.809
392.465
344.98
252.542
121.967
-32.15
-187.929
-321.358
-416.618
-468.468
-482.903
-472.072
-445.848
-409.761
-365.693
-315.39
-264.753
-221.335
-190.214
-171.563
-159.932
-149.273
-136.445
-122.058
-110.075
-103.17
-101.441
-103.249
-105.284
-105.295
-102.877
-98.25
-92.167
-85.348
-78.081
-70.734
-64.031
-58.704
-55.12
-53.341
-53.118
-53.994
-55.65
-57.857
-60.301
-62.653
-64.677
-66.179
-67.053
-67.316
-66.969
-66.008
-64.454
-62.326
-59.673
-56.585
-53.185
-49.613
-45.97
-42.319
-38.697
-35.135
-31.668
-28.341
-25.186
-22.206
-19.402
-16.779
-14.345
-12.114
-10.079
-8.202
-6.428
-4.694
-2.956
-1.19
0.619
2.485
4.417
6.421
8.49
10.607
12.761
14.946
17.161
19.407
21.677
23.958
26.233
28.487
30.705
32.875
34.984
37.021
38.976
40.841
42.614
44.294
45.877
47.357
48.729
49.988
51.128
52.145
53.034
53.791
54.414
54.902
55.256
55.479
55.573
55.541
55.389
55.121
54.742
54.26
53.681
53.011
52.258
51.431
50.538
49.587
48.587
47.546
46.473
45.375
44.261
43.137
42.009
40.885
39.769
38.67
37.592
36.541
35.521
34.537
33.593
32.691
31.833
31.02
30.252
29.527
28.845
28.204
27.601
27.035
26.502
26.002
25.53
25.085
24.663
24.261
23.876
23.505
23.148
22.803
22.468
22.144
21.831
21.531
21.245
20.974
20.719
20.48
20.258
20.055
19.873
19.712
19.575
19.464
19.384
19.34
19.337
19.379
19.47
19.613
19.812
20.068
20.384
20.757
21.187
21.673
22.217
22.817
23.475
24.188
24.957
25.782
26.663
27.596
28.576
29.595
30.647
31.728
32.835
33.964
35.111
36.272
37.448
38.64
39.847
41.058
42.254
43.409
44.502
45.523
46.458
47.296
48.023
48.64
49.162
49.622
50.049
50.457
50.841
51.19
51.506
51.802
52.103
52.435
52.794
53.178
53.6
54.081
54.643
55.265
55.854
56.274
56.395
56.126
55.443
54.315
52.648
50.405
47.61
44.389
41.052
37.845
34.837
32.112
29.853
28.157
27.034
26.289
25.183
23.041
19.63
14.571
7.351
-2.289
-14.478
-27.794
-38.721
-44.319
-42.535
-34.798
-26.06
-18.857
-13.855
-5.006
19.713
67.81
143.267
239.661
338.748
422.362
473.419
480.798
443.805
366.447
254.638
118.505
-28.376
-170.612
-288.644
-367.376
-403.689
-402.77
-379.199
-348.801
-318.398
-289.572
-259.156
-222.531
-180.975
-138.31
-98.813
-67.33
-45.404
-32.031
-26.037
-25.569
-28.555
-33.663
-39.319
-43.483
-45.106
-43.935
-40.016
-34.033
-26.891
-19.164
-11.646
-5.423
-1.028
1.363
1.765
0.633
-1.556
-4.523
-7.886
-11.207
-14.243
-16.792
-18.695
-19.973
-20.628
-20.639
-20.045
-18.873
-17.139
-14.906
-12.257
-9.288
-6.12
-2.836
0.519
3.903
7.288
10.638
13.907
17.079
20.155
23.128
25.995
28.745
31.366
33.877
36.319
38.738
41.186
43.696
46.284
48.964
51.745
54.627
57.609
60.675
63.803
66.977
70.187
73.424
76.679
79.936
83.174
86.372
89.509
92.562
95.513
98.343
101.034
103.57
105.94
108.134
110.146
111.966
113.585
114.993
116.18
117.139
117.862
118.341
118.569
118.543
118.262
117.724
116.931
115.887
114.596
113.063
111.297
109.305
107.095
104.68
102.069
99.277
96.315
93.198
89.94
86.558
83.066
79.481
75.817
72.091
68.317
64.51
60.684
56.854
53.036
49.242
45.486
41.782
38.143
34.581
31.107
27.732
24.462
21.308
18.274
15.367
12.592
9.953
7.453
5.093
2.877
0.803
-1.127
-2.915
-4.563
-6.073
-7.449
-8.693
-9.808
-10.797
-11.664
-12.412
-13.042
-13.559
-13.966
-14.266
-14.466
-14.568
-14.579
-14.502
-14.344
-14.108
-13.8
-13.423
-12.982
-12.48
-11.922
-11.31
-10.652
-9.951
-9.213
-8.445
-7.653
-6.845
-6.026
-5.203
-4.379
-3.56
-2.75
-1.952
-1.169
-0.404
0.335
1.042
1.707
2.323
2.883
3.383
3.817
4.181
4.472
4.695
4.854
4.948
4.972
4.908
4.742
4.467
4.079
3.581
2.978
2.273
1.479
0.627
-0.257
-1.144
-2.021
-2.901
-3.795
-4.704
-5.619
-6.505
-7.343
-8.138
-8.898
-9.629
-10.346
-11.066
-11.828
-12.723
-13.829
-15.222
-16.966
-19.07
-21.534
-24.344
-27.518
-31.138
-35.228
-39.707
-44.384
-48.968
-53.191
-56.887
-59.784
-61.448
-61.607
-60.202
-57.613
-54.715
-52.255
-50.892
-51.485
-54.814
-61.362
-70.362
-79.355
-85.526
-87.091
-85.262
-82.587
-79.653
-74.018
-57.797
-23.087
33
108.52
193.177
274.861
343.934
391.24
412.065
401.458
353.13
264.758
138.352
-13.995
-170.096
-304.928
-397.647
-440.985
-442.904
-420.759
-391.642
-364.247
-337.486
-304.872
-263.32
-214.742
-165.862
-124.985
-94.187
-73.107
-59.484
-49.369
-43.333
-41.779
-43.641
-48.631
-54.126
-57.591
-58.545
-56.805
-52.76
-47.256
-40.81
-33.91
-27.464
-22.333
-18.858
-17.047
-16.63
-17.184
-18.427
-20.168
-22.083
-23.79
-25.032
-25.634
-25.551
-24.849
-23.556
-21.673
-19.22
-16.258
-12.879
-9.212
-5.401
-1.524
2.374
6.26
10.112
13.897
17.572
21.111
24.511
27.77
30.88
33.831
36.603
39.199
41.646
43.991
46.292
48.585
50.887
53.211
55.562
57.949
60.374
62.828
65.29
67.745
70.184
72.604
75.001
77.366
79.684
81.935
84.101
86.166
88.113
89.928
91.596
93.102
94.437
95.596
96.572
97.362
97.957
98.352
98.538
98.51
98.263
97.792
97.093
96.163
95.003
93.613
91.997
90.157
88.099
85.829
83.352
80.678
77.814
74.77
71.556
68.184
64.665
61.012
57.239
53.359
49.387
45.336
41.222
37.059
32.86
28.64
24.411
20.187
15.982
11.808
7.678
3.603
-0.404
-4.333
-8.173
-11.916
-15.554
-19.079
-22.487
-25.771
-28.929
-31.956
-34.849
-37.607
-40.229
-42.713
-45.059
-47.267
-49.337
-51.272
-53.074
-54.743
-56.283
-57.695
-58.981
-60.144
-61.186
-62.108
-62.914
-63.604
-64.182
-64.65
-65.012
-65.271
-65.429
-65.49
-65.458
-65.335
-65.124
-64.829
-64.452
-63.993
-63.457
-62.847
-62.163
-61.411
-60.592
-59.711
-58.776
-57.795
-56.775
-55.722
-54.642
-53.542
-52.429
-51.308
-50.183
-49.057
-47.933
-46.82
-45.727
-44.666
-43.646
-42.672
-41.743
-40.862
-40.033
-39.254
-38.523
-37.835
-37.193
-36.61
-36.11
-35.713
-35.432
-35.274
-35.243
-35.339
-35.556
-35.887
-36.316
-36.833
-37.438
-38.132
-38.905
-39.75
-40.65
-41.581
-42.528
-43.458
-44.306
-45.09
-45.91
-46.851
-48.039
-49.508
-51.138
-52.947
-55.089
-57.481
-59.885
-62.059
-63.691
-64.846
-65.989
-67.222
-68.296
-69.214
-70.151
-71.374
-73.245
-75.584
-77.778
-79.794
-82.208
-85.437
-89.782
-95.461
-102.567
-111.658
-122.311
-132.291
-139.271
-140.965
-138.44
-136.26
-135.22
-133.771
-125.983
-100.237
-52.549
15.835
100.173
187.4
267.771
333.028
373.481
382.959
354.957
286.672
179.735
41.834
-110.264
-258.127
-380.274
-460.266
-497.158
-496.775
-472.702
-438.528
-394.859
-340.741
-275.492
-202.684
-137.78
-92.806
-72.545
-73.894
-83.305
-91.166
-94.529
-94.349
-96.083
-101.679
-108.743
-114.651
-116.674
-113.958
-107.612
-98.849
-88.733
-78.287
-68.509
-60.04
-53.129
-47.78
-43.66
-40.399
-37.754
-35.405
-32.988
-30.325
-27.343
-24.043
-20.54
-16.916
-13.2
-9.451
-5.714
-2.003
1.662
5.273
8.831
12.314
15.701
18.987
22.167
25.248
28.245
31.163
34.016
36.819
39.585
42.318
45.022
47.696
50.345
52.977
55.604
58.238
60.887
63.558
66.253
68.975
71.721
74.486
77.261
80.035
82.801
85.55
88.274
90.967
93.617
96.213
98.745
101.2
103.564
105.824
107.965
109.971
111.829
113.527
115.051
116.391
117.534
118.472
119.194
119.692
119.959
119.989
119.775
119.314
118.602
117.639
116.426
114.963
113.253
111.302
109.115
106.699
104.063
101.216
98.168
94.932
91.52
87.946
84.225
80.372
76.402
72.333
68.181
63.963
59.695
55.394
51.077
46.759
42.457
38.185
33.959
29.792
25.697
21.688
17.776
13.972
10.285
6.723
3.294
0.005
-3.14
-6.135
-8.977
-11.664
-14.194
-16.564
-18.775
-20.827
-22.72
-24.458
-26.042
-27.476
-28.762
-29.904
-30.906
-31.77
-32.501
-33.101
-33.573
-33.921
-34.147
-34.254
-34.247
-34.128
-33.9
-33.566
-33.13
-32.593
-31.958
-31.227
-30.401
-29.483
-28.473
-27.373
-26.186
-24.914
-23.563
-22.137
-20.641
-19.082
-17.463
-15.793
-14.075
-12.314
-10.514
-8.679
-6.812
-4.919
-3.007
-1.083
0.843
2.762
4.666
6.548
8.399
10.214
11.988
13.719
15.405
17.04
18.613
20.1
21.481
22.744
23.877
24.876
25.735
26.453
27.035
27.502
27.876
28.175
28.409
28.572
28.661
28.674
28.627
28.558
28.487
28.416
28.335
28.23
28.083
27.882
27.593
27.136
26.421
25.358
23.877
21.948
19.564
16.709
13.304
9.274
4.646
-0.422
-5.646
-10.733
-15.479
-19.676
-22.997
-25.112
-25.897
-25.608
-24.915
-24.559
-25.258
-27.764
-32.783
-41.084
-52.337
-64.415
-74.877
-81.09
-82.264
-81.324
-79.9
-77.31
-70.281
-49.465
-6.988
59.722
149.77
253.939
358.772
450.67
514.763
538.956
515.672
443.271
326.229
175.351
7.117
-160.067
-306.765
-416.825
-481.212
-499.865
-480.529
-433.507
-370.521
-300.061
-228.016
-163.108
-111.752
-77.384
-60.811
-55.554
-53.4
-50.25
-44.709
-38.906
-36.506
-37.607
-39.941
-41.162
-39.021
-33.045
-24.231
-13.671
-2.422
8.501
18.105
25.805
31.386
34.898
36.753
37.378
37.114
36.383
35.621
35.081
34.913
35.188
35.884
37.038
38.693
40.84
43.461
46.518
49.961
53.73
57.729
61.848
65.995
70.098
74.124
78.06
81.892
85.61
89.208
92.663
95.969
99.119
102.095
104.9
107.549
110.071
112.518
114.945
117.387
119.871
122.413
125.016
127.681
130.405
133.168
135.96
138.769
141.587
144.409
147.23
150.035
152.808
155.53
158.178
160.734
163.178
165.49
167.655
169.656
171.479
173.117
174.559
175.795
176.813
177.602
178.152
178.454
178.5
178.281
177.791
177.028
175.988
174.673
173.083
171.224
169.097
166.711
164.072
161.189
158.073
154.734
151.184
147.438
143.508
139.411
135.162
130.776
126.272
121.665
116.974
112.215
107.405
102.561
97.699
92.836
87.986
83.165
78.387
73.665
69.013
64.442
59.962
55.583
51.313
47.158
43.124
39.215
35.435
31.787
28.272
24.893
21.648
18.539
15.563
12.719
10.004
7.417
4.953
2.61
0.385
-1.725
-3.724
-5.615
-7.399
-9.081
-10.663
-12.148
-13.539
-14.839
-16.051
-17.177
-18.219
-19.179
-20.058
-20.857
-21.577
-22.217
-22.778
-23.262
-23.667
-23.997
-24.253
-24.437
-24.555
-24.608
-24.602
-24.54
-24.426
-24.263
-24.055
-23.805
-23.516
-23.191
-22.836
-22.458
-22.064
-21.665
-21.268
-20.881
-20.509
-20.159
-19.837
-19.543
-19.279
-19.046
-18.854
-18.721
-18.664
-18.696
-18.826
-19.06
-19.396
-19.831
-20.355
-20.944
-21.574
-22.226
-22.888
-23.565
-24.267
-24.996
-25.747
-26.496
-27.224
-27.931
-28.617
-29.291
-29.982
-30.722
-31.573
-32.635
-33.979
-35.669
-37.774
-40.311
-43.298
-46.747
-50.615
-54.941
-59.818
-65.208
-71.018
-77.066
-82.982
-88.461
-93.301
-97.034
-99.143
-99.482
-98.093
-95.438
-92.454
-89.952
-88.667
-89.682
-94.221
-101.705
-109.959
-116.835
-119.436
-118.737
-119.788
-122.99
-126.394
-123.405
-100.303
-51.744
21.286
114.108
212.287
304.328
380.277
428.251
439.857
406.78
325.625
198.466
35.254
-143.343
-315.395
-456.505
-547.853
-587.579
-581.554
-542.846
-488.457
-426.568
-362.28
-301.685
-247.742
-204.092
-173.151
-151.162
-133.059
-116.312
-99.77
-85.59
-77.546
-76.063
-79.614
-85.725
-90.948
-93.476
-93.211
-90.425
-85.776
-79.954
-73.387
-66.655
-60.54
-55.679
-52.303
-50.333
-49.51
-49.513
-50.12
-51.109
-52.158
-52.905
-53.081
-52.576
-51.398
-49.61
-47.261
-44.384
-41.043
-37.371
-33.532
-29.649
-25.805
-22.031
-18.322
-14.7
-11.19
-7.816
-4.604
-1.561
1.318
4.029
6.562
8.924
11.131
13.224
15.274
17.333
19.434
21.602
23.845
26.17
28.588
31.098
33.687
36.345
39.061
41.828
44.646
47.508
50.401
53.306
56.201
59.065
61.879
64.624
67.282
69.833
72.26
74.55
76.691
78.674
80.482
82.103
83.522
84.723
85.695
86.425
86.9
87.11
87.046
86.703
86.075
85.162
83.96
82.471
80.697
78.641
76.309
73.707
70.845
67.731
64.378
60.798
57.007
53.021
48.855
44.527
40.057
35.463
30.765
25.982
21.134
16.24
11.32
6.395
1.483
-3.394
-8.219
-12.973
-17.638
-22.197
-26.636
-30.939
-35.095
-39.092
-42.919
-46.567
-50.027
-53.294
-56.36
-59.222
-61.876
-64.32
-66.553
-68.577
-70.393
-72.004
-73.411
-74.62
-75.635
-76.46
-77.1
-77.56
-77.845
-77.962
-77.919
-77.721
-77.377
-76.895
-76.282
-75.546
-74.694
-73.735
-72.674
-71.518
-70.273
-68.947
-67.545
-66.076
-64.547
-62.966
-61.343
-59.685
-58.001
-56.297
-54.58
-52.856
-51.13
-49.403
-47.681
-45.968
-44.269
-42.59
-40.941
-39.327
-37.757
-36.237
-34.77
-33.36
-32.009
-30.715
-29.476
-28.292
-27.169
-26.121
-25.165
-24.308
-23.557
-22.914
-22.378
-21.944
-21.602
-21.331
-21.105
-20.907
-20.722
-20.554
-20.413
-20.303
-20.219
-20.136
-20.034
-19.907
-19.763
-19.62
-19.495
-19.411
-19.412
-19.569
-19.97
-20.699
-21.831
-23.404
-25.43
-27.905
-30.832
-34.282
-38.293
-42.793
-47.614
-52.483
-57.135
-61.411
-65.129
-67.902
-69.39
-69.539
-68.596
-67.248
-66.207
-65.939
-66.989
-70.109
-76.151
-84.746
-93.674
-100.098
-101.093
-96.544
-90.967
-87.891
-88.187
-88.947
-78.398
-44.992
16.992
109.029
219.735
330.319
422.666
478.512
486.991
446.075
358.848
232.618
78.481
-89.34
-254.009
-395.953
-499.037
-555.199
-566.482
-543.213
-497.06
-439.255
-376.029
-311.427
-252.42
-202.151
-162.81
-134.35
-110.598
-88.933
-69.181
-52.032
-41.413
-38.218
-40.742
-46.924
-53.5
-58.401
-60.921
-60.776
-58.366
-54.228
-48.737
-42.515
-36.217
-30.454
-25.893
-22.749
-20.886
-20.129
-20.209
-20.85
-21.823
-22.792
-23.327
-23.206
-22.361
-20.786
-18.575
-15.78
-12.423
-8.608
-4.49
-0.226
4.06
8.314
12.538
16.726
20.855
24.89
28.787
32.536
36.146
39.613
42.935
46.101
49.114
52.002
54.821
57.632
60.479
63.387
66.366
69.424
72.568
75.803
79.125
82.515
85.955
89.435
92.945
96.481
100.032
103.578
107.094
110.557
113.944
117.236
120.413
123.454
126.34
129.054
131.584
133.921
136.054
137.969
139.654
141.097
142.287
143.214
143.868
144.24
144.324
144.115
143.611
142.811
141.716
140.329
138.654
136.697
134.465
131.968
129.216
126.22
122.993
119.549
115.904
112.075
108.079
103.933
99.657
95.269
90.788
86.234
81.623
76.976
72.308
67.639
62.985
58.364
53.79
49.28
44.848
40.508
36.273
32.156
28.165
24.309
20.598
17.036
13.63
10.384
7.302
4.385
1.635
-0.946
-3.358
-5.604
-7.686
-9.605
-11.365
-12.971
-14.425
-15.732
-16.896
-17.92
-18.81
-19.569
-20.199
-20.706
-21.093
-21.364
-21.524
-21.575
-21.523
-21.372
-21.124
-20.784
-20.354
-19.837
-19.237
-18.557
-17.798
-16.966
-16.064
-15.097
-14.072
-12.994
-11.87
-10.705
-9.507
-8.281
-7.032
-5.765
-4.484
-3.194
-1.9
-0.607
0.674
1.936
3.168
4.364
5.514
6.612
7.652
8.627
9.538
10.385
11.163
11.864
12.468
12.959
13.328
13.567
13.674
13.65
13.499
13.231
12.871
12.446
11.976
11.476
10.941
10.369
9.759
9.125
8.498
7.898
7.324
6.776
6.238
5.69
5.109
4.445
3.613
2.535
1.131
-0.668
-2.89
-5.556
-8.667
-12.224
-16.306
-20.934
-26.011
-31.368
-36.724
-41.787
-46.375
-50.246
-52.95
-54.182
-53.925
-52.447
-50.464
-48.672
-47.613
-47.998
-50.622
-56.259
-64.341
-72.597
-78.62
-79.882
-76.328
-71.548
-66.914
-62.014
-54.249
-34.109
5.577
67.717
154.532
257.549
362.628
454.869
513.455
522.741
476.003
373.134
225.817
53.124
-122.955
-280.2
-401.682
-478.542
-512.398
-511.476
-485.482
-443.581
-390.481
-329.834
-267.915
-210.483
-162.336
-124.899
-94.381
-67.211
-42.322
-20.885
-6.515
-1.137
-3.641
-11.48
-21.008
-29.406
-35.285
-38.115
-38.099
-35.639
-31.215
-25.472
-19.158
-13.112
-8.132
-4.568
-2.387
-1.421
-1.383
-1.996
-3.003
-4.022
-4.6
-4.471
-3.549
-1.842
0.55
3.566
7.17
11.255
15.649
20.176
24.701
29.16
33.552
37.868
42.082
46.153
50.041
53.732
57.234
60.544
63.654
66.551
69.234
71.73
74.09
76.378
78.638
80.897
83.169
85.464
87.791
90.16
92.569
95.004
97.451
99.904
102.357
104.812
107.262
109.695
112.091
114.431
116.701
118.886
120.97
122.937
124.774
126.468
128.01
129.396
130.618
131.666
132.532
133.205
133.678
133.942
133.991
133.815
133.409
132.769
131.891
130.775
129.419
127.826
125.996
123.934
121.646
119.137
116.415
113.488
110.367
107.062
103.586
99.952
96.173
92.266
88.244
84.125
79.925
75.66
71.345
66.996
62.629
58.26
53.902
49.571
45.279
41.04
36.868
32.775
28.772
24.871
21.08
17.408
13.864
10.453
7.18
4.05
1.066
-1.771
-4.459
-6.999
-9.389
-11.633
-13.73
-15.686
-17.501
-19.18
-20.728
-22.149
-23.447
-24.628
-25.696
-26.655
-27.509
-28.261
-28.916
-29.475
-29.942
-30.318
-30.606
-30.808
-30.927
-30.966
-30.925
-30.807
-30.614
-30.347
-30.006
-29.592
-29.105
-28.547
-27.916
-27.214
-26.443
-25.606
-24.706
-23.748
-22.734
-21.669
-20.559
-19.407
-18.217
-16.994
-15.739
-14.456
-13.151
-11.829
-10.497
-9.165
-7.843
-6.539
-5.264
-4.021
-2.819
-1.663
-0.553
0.511
1.524
2.48
3.361
4.147
4.827
5.389
5.828
6.142
6.333
6.408
6.386
6.288
6.133
5.934
5.691
5.393
5.038
4.629
4.191
3.75
3.317
2.89
2.455
1.996
1.488
0.898
0.166
-0.787
-2.042
-3.666
-5.694
-8.136
-10.975
-14.219
-17.978
-22.303
-27.123
-32.297
-37.539
-42.547
-47.149
-51.09
-53.856
-55.103
-54.854
-53.324
-51.226
-49.524
-48.925
-50.277
-54.912
-62.989
-72.792
-82.514
-89.765
-93.795
-98.205
-105.254
-112.953
-116.12
-104.323
-67.557
-4.887
79.542
177.764
277.112
368.98
444.865
492.378
501.45
462.062
369.301
229.091
55.927
-126.318
-291.024
-416.135
-488.988
-512.998
-502.678
-474.714
-442.583
-408.948
-368.159
-317.097
-257.209
-195.167
-142.222
-103.775
-78.384
-63.19
-52.661
-44.417
-40.666
-41.912
-48.075
-57.747
-67.192
-73.987
-77.426
-77.438
-74.699
-69.973
-63.724
-56.626
-49.671
-43.758
-39.304
-36.344
-34.682
-34.01
-34.121
-34.79
-35.636
-36.221
-36.244
-35.58
-34.238
-32.302
-29.823
-26.832
-23.398
-19.656
-15.762
-11.829
-7.928
-4.074
-0.263
3.487
7.15
10.701
14.118
17.392
20.527
23.516
26.347
29.02
31.548
33.961
36.321
38.672
41.042
43.449
45.902
48.405
50.967
53.587
56.254
58.955
61.68
64.421
67.175
69.937
72.693
75.427
78.119
80.748
83.298
85.754
88.097
90.312
92.384
94.299
96.052
97.632
99.029
100.231
101.229
102.011
102.568
102.892
102.974
102.806
102.384
101.703
100.763
99.563
98.103
96.388
94.421
92.209
89.757
87.077
84.176
81.067
77.762
74.274
70.619
66.813
62.87
58.81
54.649
50.405
46.097
41.743
37.36
32.966
28.577
24.211
19.885
15.613
11.412
7.296
3.28
-0.625
-4.405
-8.051
-11.553
-14.902
-18.093
-21.12
-23.978
-26.665
-29.179
-31.52
-33.687
-35.682
-37.506
-39.163
-40.657
-41.991
-43.172
-44.204
-45.094
-45.847
-46.472
-46.973
-47.358
-47.632
-47.801
-47.872
-47.849
-47.738
-47.543
-47.268
-46.919
-46.5
-46.014
-45.465
-44.855
-44.187
-43.462
-42.682
-41.849
-40.963
-40.024
-39.033
-37.992
-36.902
-35.766
-34.588
-33.367
-32.108
-30.814
-29.487
-28.131
-26.746
-25.333
-23.894
-22.431
-20.948
-19.45
-17.943
-16.431
-14.925
-13.433
-11.962
-10.519
-9.107
-7.728
-6.386
-5.083
-3.828
-2.634
-1.51
-0.466
0.486
1.339
2.09
2.745
3.316
3.824
4.286
4.714
5.119
5.501
5.864
6.2
6.503
6.778
7.03
7.261
7.472
7.653
7.776
7.803
7.677
7.32
6.666
5.655
4.237
2.364
-0.004
-2.884
-6.288
-10.197
-14.612
-19.6
-25.137
-31.107
-37.282
-43.288
-48.755
-53.433
-56.993
-58.995
-59.305
-57.991
-55.538
-52.98
-51.104
-50.531
-52.07
-56.409
-63.877
-73.635
-83.134
-89.413
-89.757
-84.304
-75.826
-65.23
-53.495
-37.176
-7.669
39.525
108.41
197.266
292.771
379.738
440.552
458.21
426.575
347.771
229.1
85.515
-65.689
-209.238
-328.389
-411.449
-457.349
-470.759
-462.309
-443.841
-418.961
-385.821
-343.358
-292.093
-237.527
-189.65
-152.963
-126.545
-108.195
-92.736
-78.328
-67.708
-61.772
-60.745
-63.649
-66.918
-68.167
-66.815
-62.794
-56.726
-49.361
-41.137
-32.554
-24.509
-17.885
-13.035
-9.983
-8.479
-8.067
-8.445
-9.399
-10.573
-11.575
-12.14
-12.067
-11.292
-9.887
-7.878
-5.278
-2.117
1.551
5.639
10.014
14.535
19.102
23.657
28.164
32.596
36.919
41.093
45.081
48.881
52.501
55.942
59.2
62.266
65.145
67.868
70.493
73.083
75.683
78.321
81.012
83.768
86.602
89.52
92.517
95.577
98.682
101.823
104.995
108.195
111.412
114.629
117.823
120.971
124.052
127.049
129.939
132.703
135.321
137.777
140.058
142.154
144.051
145.737
147.197
148.417
149.384
150.087
150.514
150.653
150.496
150.037
149.27
148.193
146.804
145.104
143.095
140.78
138.166
135.259
132.069
128.605
124.879
120.906
116.7
112.279
107.659
102.859
97.899
92.8
87.583
82.267
76.876
71.429
65.948
60.453
54.966
49.505
44.092
38.745
33.482
28.321
23.278
18.37
13.61
9.012
4.586
0.343
-3.708
-7.561
-11.208
-14.648
-17.875
-20.89
-23.692
-26.281
-28.66
-30.833
-32.803
-34.575
-36.156
-37.552
-38.77
-39.819
-40.706
-41.44
-42.029
-42.482
-42.806
-43.01
-43.1
-43.085
-42.972
-42.767
-42.478
-42.112
-41.676
-41.176
-40.619
-40.009
-39.352
-38.652
-37.912
-37.137
-36.328
-35.488
-34.619
-33.723
-32.804
-31.863
-30.905
-29.933
-28.951
-27.961
-26.967
-25.97
-24.974
-23.979
-22.985
-21.993
-21.006
-20.024
-19.054
-18.101
-17.17
-16.266
-15.393
-14.553
-13.749
-12.982
-12.248
-11.543
-10.869
-10.23
-9.643
-9.125
-8.686
-8.334
-8.073
-7.9
-7.813
-7.803
-7.849
-7.928
-8.021
-8.113
-8.21
-8.32
-8.45
-8.595
-8.727
-8.821
-8.866
-8.866
-8.838
-8.801
-8.78
-8.814
-8.967
-9.326
-9.984
-11.021
-12.49
-14.411
-16.771
-19.6
-23.015
-27.07
-31.708
-36.728
-41.768
-46.516
-50.795
-54.339
-56.701
-57.567
-56.915
-55.193
-53.387
-52.397
-52.885
-55.636
-61.471
-70.879
-82.954
-95.185
-104.652
-109.137
-109.241
-106.904
-101.422
-89.882
-66.633
-25.769
32.89
105.78
187.237
269.235
344.301
403.642
436.581
433.593
388.912
303.2
181.875
36.153
-118.198
-264.978
-385.889
-468.194
-509.942
-515.35
-494.907
-459.093
-412.581
-359.666
-305.502
-254.554
-211.759
-178.05
-149.036
-121.363
-93.827
-67.804
-47.771
-36.157
-32.32
-34.615
-40.052
-46.069
-51.437
-55.108
-56.612
-56.104
-53.799
-49.983
-45.175
-39.991
-35.061
-31.118
-28.492
-27.073
-26.692
-27.086
-27.967
-29.086
-30.076
-30.506
-30.151
-28.957
-26.949
-24.234
-20.877
-16.924
-12.499
-7.762
-2.874
2.043
6.944
11.815
16.634
21.364
25.951
30.357
34.58
38.628
42.503
46.203
49.723
53.071
56.287
59.42
62.525
65.641
68.785
71.97
75.204
78.496
81.849
85.258
88.705
92.172
95.651
99.132
102.609
106.07
109.496
112.864
116.154
119.346
122.423
125.366
128.157
130.778
133.216
135.459
137.497
139.319
140.911
142.262
143.359
144.19
144.745
145.014
144.988
144.661
144.026
143.083
141.83
140.268
138.4
136.229
133.763
131.007
127.973
124.668
121.106
117.3
113.265
109.017
104.572
99.95
95.168
90.248
85.21
80.076
74.865
69.6
64.303
58.994
53.697
48.431
43.218
38.077
33.028
28.09
23.28
18.613
14.104
9.766
5.609
1.643
-2.124
-5.687
-9.041
-12.184
-15.115
-17.835
-20.344
-22.648
-24.751
-26.658
-28.376
-29.914
-31.279
-32.481
-33.531
-34.439
-35.216
-35.874
-36.426
-36.882
-37.257
-37.561
-37.807
-38.006
-38.169
-38.306
-38.427
-38.539
-38.652
-38.77
-38.901
-39.048
-39.216
-39.404
-39.615
-39.848
-40.102
-40.372
-40.657
-40.95
-41.247
-41.543
-41.832
-42.108
-42.366
-42.599
-42.8
-42.965
-43.087
-43.159
-43.174
-43.127
-43.012
-42.824
-42.559
-42.213
-41.786
-41.277
-40.688
-40.021
-39.278
-38.464
-37.581
-36.633
-35.625
-34.56
-33.443
-32.282
-31.085
-29.861
-28.623
-27.381
-26.146
-24.927
-23.733
-22.572
-21.45
-20.37
-19.335
-18.352
-17.434
-16.605
-15.884
-15.282
-14.808
-14.469
-14.266
-14.201
-14.264
-14.432
-14.684
-14.998
-15.364
-15.784
-16.256
-16.77
-17.306
-17.819
-18.284
-18.695
-19.055
-19.368
-19.649
-19.905
-20.168
-20.521
-21.046
-21.827
-22.939
-24.417
-26.286
-28.579
-31.383
-34.761
-38.68
-42.982
-47.358
-51.498
-55.209
-58.307
-60.477
-61.463
-61.242
-60.083
-58.832
-58.389
-59.193
-61.759
-66.739
-74.471
-85.098
-97.176
-107.02
-111.407
-108.084
-98.157
-86.264
-74.521
-62.777
-44.992
-10.159
47.199
128.348
226.257
325.18
411.725
473.048
498.561
482.684
420.004
309.957
160.438
-12.989
-186.206
-334.823
-441.812
-499.416
-513.117
-494.149
-451.807
-395.166
-328.837
-256.65
-188.244
-132.207
-94.039
-75.598
-70.386
-69.545
-68.437
-65.519
-62.901
-64.194
-69.385
-75.95
-81.248
-82.871
-80.253
-74.37
-66.347
-57.325
-48.42
-40.698
-34.811
-30.964
-29.06
-28.691
-29.417
-30.901
-32.742
-34.491
-35.868
-36.727
-36.989
-36.673
-35.791
-34.321
-32.279
-29.725
-26.715
-23.333
-19.697
-15.898
-12.027
-8.158
-4.329
-0.563
3.118
6.704
10.19
13.555
16.788
19.877
22.8
25.554
28.147
30.605
32.979
35.319
37.662
40.037
42.459
44.937
47.475
50.07
52.706
55.371
58.055
60.752
63.46
66.174
68.885
71.58
74.242
76.851
79.392
81.848
84.202
86.438
88.541
90.501
92.308
93.955
95.432
96.728
97.833
98.735
99.426
99.896
100.135
100.136
99.892
99.397
98.65
97.648
96.392
94.881
93.12
91.111
88.861
86.377
83.665
80.737
77.602
74.271
70.759
67.078
63.244
59.271
55.178
50.98
46.695
42.341
37.936
33.496
29.039
24.582
20.143
15.738
11.385
7.098
2.893
-1.214
-5.208
-9.078
-12.812
-16.397
-19.826
-23.089
-26.179
-29.091
-31.819
-34.362
-36.717
-38.882
-40.858
-42.647
-44.253
-45.677
-46.926
-48.006
-48.922
-49.683
-50.296
-50.77
-51.113
-51.336
-51.446
-51.455
-51.373
-51.208
-50.971
-50.673
-50.322
-49.93
-49.504
-49.053
-48.588
-48.114
-47.64
-47.172
-46.717
-46.28
-45.866
-45.479
-45.122
-44.797
-44.505
-44.247
-44.023
-43.83
-43.666
-43.528
-43.413
-43.317
-43.234
-43.161
-43.089
-43.014
-42.929
-42.826
-42.7
-42.541
-42.342
-42.095
-41.795
-41.433
-41.003
-40.5
-39.917
-39.25
-38.494
-37.645
-36.698
-35.652
-34.503
-33.25
-31.893
-30.431
-28.868
-27.208
-25.456
-23.619
-21.706
-19.726
-17.686
-15.597
-13.468
-11.307
-9.123
-6.923
-4.718
-2.518
-0.337
1.813
3.919
5.97
7.954
9.864
11.689
13.424
15.067
16.617
18.067
19.408
20.617
21.676
22.575
23.308
23.87
24.263
24.489
24.56
24.502
24.344
24.11
23.817
23.463
23.051
22.588
22.095
21.618
21.188
20.812
20.486
20.2
19.942
19.701
19.451
19.11
18.585
17.796
16.683
15.23
13.446
11.315
8.734
5.619
1.994
-2.02
-6.172
-10.19
-13.904
-17.096
-19.344
-20.277
-19.784
-18.004
-15.473
-13.009
-11.352
-11.303
-14.064
-19.897
-27.385
-34.922
-40.538
-43.802
-48.106
-55.806
-65.133
-70.644
-61.452
-27.194
33.999
118.542
217.572
318.568
413.05
491.809
544.033
560.988
533.76
459.872
344.748
198.847
38.158
-119.868
-258.884
-365.806
-432.455
-458.723
-450.165
-413.344
-358.653
-294.278
-227.724
-169.771
-125.01
-95.033
-77.892
-65.291
-53.07
-39.98
-26.832
-18.46
-16.216
-18.731
-23.944
-27.841
-28.458
-26.047
-20.991
-14.291
-6.927
0.757
8.123
14.155
18.384
20.75
21.38
20.732
19.261
17.198
14.848
12.636
10.805
9.518
8.913
8.957
9.611
10.891
12.757
15.141
17.988
21.187
24.594
28.114
31.658
35.161
38.602
41.951
45.176
48.258
51.176
53.915
56.479
58.865
61.062
63.077
64.927
66.652
68.32
69.981
71.672
73.417
75.228
77.115
79.088
81.145
83.273
85.461
87.698
89.98
92.305
94.668
97.056
99.453
101.838
104.192
106.498
108.74
110.897
112.955
114.895
116.706
118.377
119.899
121.257
122.439
123.43
124.218
124.789
125.133
125.237
125.09
124.684
124.011
123.068
121.85
120.355
118.583
116.536
114.217
111.631
108.784
105.683
102.337
98.758
94.958
90.949
86.748
82.369
77.831
73.151
68.348
63.441
58.452
53.398
48.301
43.18
38.056
32.948
27.877
22.862
17.921
13.074
8.338
3.73
-0.735
-5.043
-9.182
-13.14
-16.906
-20.474
-23.835
-26.985
-29.918
-32.633
-35.129
-37.404
-39.462
-41.304
-42.935
-44.361
-45.586
-46.619
-47.468
-48.142
-48.65
-49.003
-49.212
-49.287
-49.24
-49.084
-48.831
-48.492
-48.081
-47.61
-47.09
-46.533
-45.951
-45.355
-44.755
-44.162
-43.584
-43.031
-42.51
-42.03
-41.596
-41.215
-40.891
-40.628
-40.43
-40.299
-40.238
-40.247
-40.327
-40.478
-40.7
-40.992
-41.352
-41.777
-42.265
-42.812
-43.413
-44.063
-44.757
-45.49
-46.254
-47.045
-47.855
-48.678
-49.508
-50.336
-51.156
-51.961
-52.742
-53.494
-54.207
-54.875
-55.491
-56.049
-56.542
-56.967
-57.318
-57.59
-57.778
-57.881
-57.893
-57.811
-57.633
-57.355
-56.977
-56.497
-55.915
-55.232
-54.453
-53.58
-52.621
-51.581
-50.466
-49.283
-48.04
-46.741
-45.394
-44.003
-42.574
-41.113
-39.63
-38.133
-36.635
-35.145
-33.675
-32.232
-30.824
-29.459
-28.142
-26.874
-25.656
-24.494
-23.397
-22.39
-21.491
-20.713
-20.064
-19.548
-19.161
-18.9
-18.752
-18.687
-18.68
-18.704
-18.744
-18.807
-18.891
-18.994
-19.103
-19.176
-19.19
-19.141
-19.033
-18.884
-18.722
-18.575
-18.501
-18.593
-18.937
-19.626
-20.733
-22.287
-24.33
-26.861
-29.909
-33.596
-37.93
-42.812
-48.055
-53.288
-58.171
-62.528
-66.028
-68.192
-68.855
-68.02
-66.128
-64.216
-63.027
-63.116
-65.263
-70.096
-77.872
-87.744
-97.066
-102.68
-101.905
-95.008
-84.943
-73.011
-59.873
-41.172
-7.868
44.686
119.033
210.971
306.523
391.141
450.36
471.361
448.256
381.217
272.858
131.95
-25.302
-182.215
-318.234
-413.825
-462.874
-467.066
-436.893
-392.53
-348.089
-310.787
-283.912
-260.755
-234.312
-203.16
-166.41
-128.341
-95.727
-71.043
-55.387
-47.916
-45.406
-45.973
-48.476
-51.463
-53.959
-55.006
-53.917
-50.779
-45.991
-39.983
-33.224
-26.23
-19.639
-14.111
-9.947
-7.084
-5.291
-4.281
-3.847
-3.829
-3.959
-3.902
-3.416
-2.363
-0.719
1.459
4.152
7.337
10.956
14.904
19.033
23.216
27.367
31.448
35.446
39.353
43.151
46.823
50.364
53.757
57.002
60.094
63.019
65.78
68.39
70.881
73.309
75.729
78.177
80.68
83.253
85.902
88.634
91.452
94.341
97.293
100.299
103.352
106.451
109.592
112.764
115.95
119.133
122.289
125.4
128.447
131.409
134.269
137.008
139.61
142.063
144.354
146.47
148.395
150.114
151.612
152.875
153.89
154.645
155.127
155.328
155.24
154.857
154.177
153.196
151.914
150.333
148.455
146.285
143.829
141.095
138.091
134.83
131.324
127.587
123.635
119.485
115.154
110.662
106.029
101.276
96.425
91.495
86.51
81.489
76.455
71.428
66.43
61.48
56.599
51.804
47.115
42.547
38.117
33.837
29.721
25.78
22.024
18.461
15.098
11.942
8.997
6.265
3.75
1.451
-0.633
-2.504
-4.165
-5.621
-6.878
-7.941
-8.82
-9.523
-10.057
-10.434
-10.663
-10.754
-10.719
-10.569
-10.314
-9.967
-9.537
-9.037
-8.477
-7.866
-7.216
-6.534
-5.831
-5.115
-4.394
-3.675
-2.966
-2.274
-1.605
-0.966
-0.361
0.203
0.724
1.197
1.619
1.989
2.303
2.561
2.763
2.907
2.993
3.022
2.995
2.914
2.78
2.597
2.368
2.095
1.783
1.437
1.06
0.656
0.23
-0.215
-0.674
-1.141
-1.613
-2.082
-2.545
-2.994
-3.422
-3.823
-4.19
-4.517
-4.799
-5.03
-5.205
-5.318
-5.366
-5.344
-5.247
-5.073
-4.816
-4.474
-4.045
-3.527
-2.92
-2.226
-1.445
-0.581
0.359
1.371
2.45
3.59
4.787
6.035
7.329
8.663
10.034
11.438
12.864
14.303
15.742
17.169
18.575
19.949
21.283
22.568
23.799
24.973
26.094
27.16
28.164
29.092
29.92
30.634
31.227
31.696
32.035
32.246
32.333
32.317
32.234
32.107
31.94
31.722
31.429
31.052
30.592
30.066
29.49
28.878
28.236
27.578
26.928
26.286
25.633
24.919
24.048
22.952
21.605
19.999
18.125
16.005
13.636
10.962
8.016
4.885
1.685
-1.337
-3.924
-5.929
-7.158
-7.257
-6.073
-3.707
-0.476
2.742
4.967
5.622
4.221
0.11
-7.033
-16.85
-28.641
-40.061
-47.37
-48.79
-43.473
-31.38
-15.94
2.021
25.327
55.73
98.387
155.828
222.392
290.87
348.824
382.584
384.549
349.864
279.883
180.562
59.656
-71.583
-200.84
-313.976
-398.686
-448.271
-461.703
-446.535
-412.958
-369.896
-326.15
-284.543
-245.779
-211.29
-178.744
-148.279
-121.565
-98.57
-81.716
-71.847
-67.804
-68.966
-73.237
-78.636
-83.808
-87.275
-88.589
-87.918
-85.54
-82.016
-77.783
-73.209
-68.967
-65.709
-63.715
-62.993
-63.284
-64.245
-65.665
-67.36
-69.052
-70.403
-71.138
-71.122
-70.359
-68.919
-66.85
-64.194
-61.008
-57.415
-53.583
-49.637
-45.668
-41.712
-37.774
-33.876
-30.051
-26.323
-22.718
-19.247
-15.906
-12.704
-9.654
-6.752
-3.989
-1.329
1.291
3.916
6.575
9.29
12.066
14.907
17.822
20.808
23.849
26.934
30.051
33.192
36.355
39.534
42.715
45.882
49.013
52.087
55.089
58.002
60.807
63.49
66.034
68.428
70.665
72.734
74.626
76.329
77.83
79.119
80.185
81.021
81.614
81.958
82.045
81.871
81.434
80.731
79.761
78.526
77.027
75.269
73.255
70.993
68.49
65.754
62.797
59.629
56.264
52.715
48.998
45.127
41.12
36.992
32.762
28.446
24.062
19.627
15.158
10.674
6.19
1.725
-2.706
-7.086
-11.398
-15.628
-19.761
-23.783
-27.683
-31.447
-35.065
-38.527
-41.825
-44.952
-47.899
-50.663
-53.239
-55.625
-57.818
-59.817
-61.625
-63.241
-64.669
-65.913
-66.977
-67.865
-68.583
-69.139
-69.538
-69.787
-69.894
-69.867
-69.713
-69.441
-69.059
-68.575
-68
-67.34
-66.606
-65.806
-64.95
-64.046
-63.103
-62.13
-61.136
-60.128
-59.116
-58.106
-57.107
-56.125
-55.167
-54.239
-53.347
-52.495
-51.688
-50.93
-50.224
-49.573
-48.979
-48.446
-47.973
-47.564
-47.219
-46.94
-46.727
-46.581
-46.502
-46.489
-46.543
-46.66
-46.84
-47.079
-47.375
-47.724
-48.122
-48.566
-49.05
-49.569
-50.119
-50.692
-51.282
-51.883
-52.487
-53.088
-53.678
-54.25
-54.797
-55.312
-55.79
-56.224
-56.61
-56.94
-57.21
-57.414
-57.547
-57.605
-57.583
-57.475
-57.279
-56.991
-56.609
-56.134
-55.567
-54.908
-54.161
-53.328
-52.413
-51.421
-50.354
-49.217
-48.013
-46.746
-45.421
-44.046
-42.629
-41.179
-39.708
-38.226
-36.744
-35.27
-33.812
-32.379
-30.973
-29.598
-28.258
-26.962
-25.726
-24.567
-23.493
-22.514
-21.634
-20.848
-20.151
-19.532
-18.965
-18.426
-17.893
-17.345
-16.776
-16.191
-15.589
-14.966
-14.3
-13.57
-12.777
-11.929
-11.046
-10.153
-9.282
-8.481
-7.83
-7.409
-7.296
-7.568
-8.271
-9.44
-11.1
-13.242
-15.898
-19.14
-22.925
-27.14
-31.583
-35.894
-39.789
-43.11
-45.522
-46.611
-46.218
-44.302
-41.2
-37.833
-34.805
-32.308
-30.947
-31.384
-33.636
-37.677
-41.929
-42.788
-38.76
-29.648
-16.069
-1.068
16.027
38.946
70.943
116.257
174.117
239.031
304.67
362.235
404.634
426.833
422.364
386.824
318.079
215.579
88.085
-49.022
-177.836
-277.441
-337.841
-360.817
-355.201
-337.287
-316.757
-295.246
-271.299
-239.832
-200.098
-156.035
-111.869
-72.449
-40.957
-18.215
-4.072
2.505
3.012
-0.935
-7.848
-16.256
-24.32
-30.465
-33.891
-34.383
-32.344
-28.488
-23.345
-17.452
-11.611
-6.557
-2.704
-0.169
1.256
1.894
1.971
1.689
1.309
1.135
1.38
2.156
3.497
5.367
7.715
10.504
13.654
17.038
20.56
24.147
27.728
31.285
34.805
38.272
41.697
45.094
48.458
51.785
55.057
58.247
61.35
64.372
67.325
70.244
73.156
76.084
79.061
82.107
85.23
88.435
91.714
95.051
98.435
101.857
105.308
108.784
112.278
115.777
119.27
122.739
126.168
129.54
132.832
136.025
139.099
142.037
144.823
147.445
149.891
152.146
154.197
156.033
157.64
159.007
160.122
160.974
161.553
161.85
161.86
161.577
160.998
160.122
158.947
157.475
155.709
153.654
151.316
148.703
145.824
142.69
139.314
135.709
131.89
127.874
123.677
119.318
114.816
110.191
105.462
100.651
95.777
90.861
85.923
80.983
76.06
71.173
66.342
61.584
56.917
52.358
47.923
43.625
39.479
35.497
31.69
28.067
24.636
21.404
18.377
15.559
12.951
10.556
8.373
6.4
4.635
3.074
1.711
0.541
-0.444
-1.252
-1.892
-2.372
-2.704
-2.895
-2.958
-2.904
-2.742
-2.485
-2.143
-1.728
-1.252
-0.726
-0.161
0.432
1.041
1.658
2.271
2.872
3.45
3.998
4.508
4.971
5.382
5.733
6.018
6.235
6.377
6.442
6.428
6.332
6.154
5.892
5.546
5.116
4.603
4.008
3.332
2.576
1.743
0.836
-0.142
-1.186
-2.292
-3.455
-4.669
-5.93
-7.231
-8.566
-9.93
-11.315
-12.715
-14.123
-15.53
-16.929
-18.312
-19.67
-20.996
-22.282
-23.519
-24.703
-25.826
-26.882
-27.866
-28.771
-29.592
-30.324
-30.962
-31.5
-31.935
-32.262
-32.478
-32.583
-32.575
-32.457
-32.229
-31.897
-31.462
-30.93
-30.306
-29.594
-28.797
-27.921
-26.97
-25.949
-24.864
-23.722
-22.533
-21.309
-20.064
-18.807
-17.551
-16.305
-15.077
-13.878
-12.708
-11.572
-10.473
-9.42
-8.434
-7.535
-6.734
-6.041
-5.463
-4.995
-4.633
-4.368
-4.168
-4.007
-3.859
-3.702
-3.546
-3.407
-3.292
-3.199
-3.115
-3.019
-2.919
-2.829
-2.752
-2.709
-2.727
-2.85
-3.178
-3.805
-4.805
-6.252
-8.175
-10.568
-13.44
-16.774
-20.572
-24.891
-29.686
-34.825
-40.128
-45.289
-50.031
-54.134
-57.19
-58.75
-58.63
-56.815
-53.788
-50.427
-47.291
-45.09
-44.839
-47.096
-52.127
-59.135
-65.285
-68.666
-68.56
-64.967
-59.754
-51.402
-35.905
-9.689
31.58
87.207
152.984
224.494
293.708
351.914
390.383
398.331
368.841
301.554
199.546
73.136
-62.106
-191.877
-299.398
-372.436
-410.307
-415.991
-399.057
-371.197
-334.759
-292.845
-249.023
-203.782
-163.947
-132.939
-107.918
-88.563
-71.802
-55.933
-44.2
-37.616
-36.283
-39.773
-45.231
-50.215
-53.451
-54.289
-52.934
-49.899
-45.579
-40.268
-34.353
-28.48
-23.3
-19.181
-16.225
-14.262
-13.027
-12.338
-12.033
-11.882
-11.597
-10.968
-9.876
-8.266
-6.17
-3.638
-0.704
2.549
5.993
9.536
13.101
16.615
20.059
23.421
26.685
29.866
32.978
36.016
38.977
41.841
44.585
47.211
49.729
52.156
54.532
56.886
59.251
61.662
64.143
66.706
69.358
72.094
74.9
77.771
80.7
83.68
86.712
89.789
92.903
96.043
99.195
102.343
105.469
108.553
111.573
114.511
117.348
120.068
122.656
125.1
127.383
129.492
131.41
133.123
134.617
135.876
136.886
137.634
138.107
138.296
138.192
137.789
137.081
136.065
134.74
133.104
131.159
128.909
126.359
123.515
120.384
116.978
113.309
109.389
105.234
100.862
96.289
91.535
86.62
81.566
76.392
71.121
65.775
60.375
54.943
49.501
44.071
38.674
33.332
28.066
22.894
17.836
12.909
8.129
3.512
-0.928
-5.179
-9.231
-13.073
-16.697
-20.097
-23.267
-26.205
-28.908
-31.375
-33.61
-35.613
-37.391
-38.947
-40.289
-41.424
-42.362
-43.111
-43.682
-44.085
-44.332
-44.434
-44.403
-44.252
-43.993
-43.639
-43.201
-42.693
-42.126
-41.513
-40.864
-40.192
-39.507
-38.82
-38.14
-37.477
-36.839
-36.236
-35.674
-35.16
-34.7
-34.3
-33.965
-33.697
-33.5
-33.375
-33.325
-33.35
-33.45
-33.625
-33.873
-34.194
-34.586
-35.047
-35.574
-36.167
-36.821
-37.533
-38.3
-39.117
-39.982
-40.888
-41.832
-42.808
-43.811
-44.838
-45.881
-46.937
-47.998
-49.059
-50.113
-51.155
-52.178
-53.175
-54.139
-55.065
-55.947
-56.779
-57.558
-58.279
-58.938
-59.531
-60.055
-60.507
-60.883
-61.18
-61.396
-61.528
-61.574
-61.535
-61.41
-61.202
-60.912
-60.545
-60.105
-59.597
-59.025
-58.392
-57.704
-56.965
-56.177
-55.346
-54.476
-53.574
-52.65
-51.713
-50.773
-49.838
-48.915
-48.012
-47.135
-46.289
-45.474
-44.69
-43.941
-43.237
-42.599
-42.045
-41.583
-41.222
-40.964
-40.81
-40.762
-40.814
-40.938
-41.109
-41.305
-41.509
-41.732
-41.98
-42.249
-42.521
-42.763
-42.951
-43.094
-43.207
-43.29
-43.355
-43.406
-43.463
-43.615
-43.958
-44.581
-45.556
-46.896
-48.593
-50.666
-53.21
-56.291
-59.863
-63.749
-67.657
-71.351
-74.726
-77.664
-79.834
-80.893
-80.787
-79.773
-78.524
-77.71
-77.739
-79.066
-82.419
-88.584
-96.856
-104.931
-110.424
-110.804
-107.181
-104.349
-103.227
-102.836
-97.747
-75.599
-31.095
36.299
123.374
216.163
302.697
371.905
411.294
415.686
381.988
310.905
208.91
84.08
-52.335
-186.94
-306.196
-398.339
-455.72
-477.297
-467.28
-432.596
-382.802
-326.917
-273.94
-231.05
-200.165
-179.383
-162.617
-144.719
-124.9
-104.799
-88.775
-79.64
-76.837
-78.668
-82.291
-85.301
-86.654
-86.029
-83.67
-80.014
-75.487
-70.455
-65.311
-60.667
-57.155
-55.056
-54.344
-54.777
-56
-57.766
-59.906
-62.149
-64.16
-65.694
-66.577
-66.756
-66.282
-65.178
-63.444
-61.123
-58.295
-55.08
-51.645
-48.114
-44.548
-40.988
-37.45
-33.954
-30.538
-27.225
-24.03
-20.958
-18.012
-15.201
-12.544
-10.04
-7.673
-5.403
-3.166
-0.913
1.383
3.742
6.171
8.676
11.264
13.93
16.658
19.433
22.244
25.085
27.957
30.853
33.761
36.663
39.539
42.372
45.144
47.838
50.437
52.926
55.289
57.517
59.602
61.537
63.312
64.917
66.342
67.576
68.612
69.441
70.055
70.448
70.614
70.551
70.258
69.734
68.981
68.001
66.798
65.377
63.743
61.905
59.87
57.648
55.249
52.686
49.971
47.119
44.143
41.061
37.887
34.64
31.335
27.989
24.619
21.24
17.87
14.523
11.216
7.963
4.778
1.677
-1.329
-4.225
-7.002
-9.648
-12.154
-14.512
-16.716
-18.758
-20.635
-22.342
-23.876
-25.236
-26.42
-27.429
-28.265
-28.93
-29.427
-29.762
-29.939
-29.965
-29.847
-29.592
-29.208
-28.704
-28.088
-27.37
-26.557
-25.66
-24.686
-23.646
-22.548
-21.402
-20.215
-18.997
-17.755
-16.499
-15.236
-13.974
-12.719
-11.48
-10.261
-9.071
-7.914
-6.797
-5.725
-4.702
-3.734
-2.823
-1.973
-1.188
-0.469
0.181
0.762
1.272
1.711
2.08
2.377
2.604
2.761
2.849
2.87
2.823
2.712
2.537
2.301
2.008
1.659
1.259
0.81
0.319
-0.213
-0.779
-1.375
-1.995
-2.636
-3.289
-3.951
-4.612
-5.268
-5.911
-6.535
-7.131
-7.693
-8.214
-8.687
-9.107
-9.468
-9.763
-9.988
-10.137
-10.204
-10.186
-10.078
-9.876
-9.575
-9.174
-8.671
-8.065
-7.358
-6.551
-5.647
-4.651
-3.567
-2.4
-1.155
0.163
1.547
2.995
4.5
6.056
7.654
9.286
10.939
12.603
14.265
15.913
17.539
19.131
20.681
22.186
23.64
25.038
26.371
27.622
28.774
29.815
30.736
31.531
32.203
32.756
33.199
33.553
33.839
34.077
34.283
34.461
34.604
34.706
34.768
34.81
34.853
34.897
34.937
34.956
34.927
34.826
34.613
34.217
33.573
32.621
31.291
29.541
27.354
24.716
21.652
18.154
14.143
9.631
4.734
-0.323
-5.182
-9.525
-13.17
-15.864
-17.193
-16.918
-15.063
-12.064
-8.857
-6.269
-4.868
-5.242
-8.067
-13.942
-22.042
-29.856
-34.708
-33.818
-27.745
-20.524
-12.608
-3.27
11.592
42.19
91.67
159.172
242.943
331.304
413.556
480.706
516.788
511.106
459.1
358.169
219.288
62.449
-92.924
-223.376
-312.448
-358.864
-367.863
-353.957
-333.854
-313.548
-293.515
-269.903
-237.029
-195.495
-149.528
-103.711
-62.86
-29.6
-4.603
12.219
21.836
25.53
24.692
20.648
14.631
8.286
3.17
0.09
-0.678
0.653
3.536
7.593
12.45
17.373
21.596
24.693
26.521
27.248
27.177
26.501
25.401
24.186
23.245
22.891
23.278
24.414
26.222
28.622
31.553
34.921
38.561
42.33
46.129
49.886
53.592
57.254
60.85
64.37
67.804
71.121
74.312
77.376
80.298
83.083
85.749
88.316
90.833
93.351
95.904
98.516
101.202
103.962
106.798
109.709
112.681
115.706
118.775
121.877
125.009
128.164
131.328
134.488
137.625
140.715
143.74
146.683
149.523
152.244
154.83
157.265
159.539
161.641
163.557
165.275
166.783
168.067
169.116
169.921
170.471
170.758
170.775
170.518
169.986
169.176
168.091
166.732
165.103
163.209
161.059
158.661
156.024
153.161
150.083
146.806
143.344
139.715
135.936
132.025
128.002
123.886
119.699
115.46
111.191
106.911
102.641
98.4
94.207
90.08
86.038
82.097
78.271
74.576
71.023
67.624
64.387
61.321
58.431
55.722
53.195
50.851
48.69
46.709
44.903
43.268
41.795
40.476
39.301
38.26
37.34
36.528
35.811
35.173
34.598
34.073
33.579
33.102
32.623
32.128
31.6
31.024
30.383
29.664
28.853
27.937
26.904
25.743
24.445
23.001
21.403
19.646
17.725
15.636
13.376
10.945
8.343
5.572
2.634
-0.466
-3.724
-7.133
-10.687
-14.378
-18.198
-22.136
-26.183
-30.329
-34.562
-38.87
-43.24
-47.66
-52.117
-56.596
-61.085
-65.571
-70.039
-74.477
-78.873
-83.214
-87.489
-91.684
-95.789
-99.793
-103.685
-107.455
-111.094
-114.592
-117.943
-121.138
-124.172
-127.039
-129.735
-132.255
-134.596
-136.756
-138.733
-140.524
-142.131
-143.553
-144.791
-145.847
-146.725
-147.429
-147.968
-148.346
-148.573
-148.655
-148.604
-148.427
-148.133
-147.731
-147.226
-146.629
-145.948
-145.193
-144.374
-143.504
-142.596
-141.662
-140.716
-139.767
-138.827
-137.903
-137
-136.124
-135.279
-134.474
-133.725
-133.046
-132.448
-131.939
-131.524
-131.2
-130.963
-130.802
-130.697
-130.625
-130.567
-130.504
-130.431
-130.354
-130.277
-130.197
-130.099
-129.966
-129.802
-129.617
-129.432
-129.275
-129.178
-129.189
-129.39
-129.86
-130.673
-131.905
-133.611
-135.81
-138.517
-141.722
-145.423
-149.683
-154.488
-159.714
-165.166
-170.549
-175.581
-180.083
-183.794
-186.254
-187.176
-186.551
-184.649
-182.182
-179.756
-177.785
-176.935
-178.06
-181.917
-187.675
-192.847
-195.069
-192.184
-185.805
-180.903
-177.983
-175.389
-167.122
-140.88
-92.598
-23.789
61.005
147.758
225.439
285.645
317.854
315.322
272.78
188.2
64.91
-85.63
-244.876
-393.169
-508.799
-578.288
-602.221
-588.778
-554.381
-514.969
-476.675
-440.148
-402.112
-359.079
-312.907
-267.944
-228.75
-198.723
-178.063
-165.375
-158.868
-156.32
-155.819
-155.503
-153.258
-147.794
-138.732
-126.119
-110.52
-92.811
-73.827
-54.603
-36.418
-20.044
-5.742
6.465
16.918
26.077
34.291
41.979
49.615
57.445
65.575
74.054
82.795
91.734
100.87
110.185
119.694
129.436
139.408
149.586
159.914
170.28
180.578
190.736
200.686
210.392
219.835
229.002
237.904
246.568
255.009
263.227
271.194
278.882
286.287
293.426
300.331
307.054
313.633
320.104
326.506
332.865
339.197
345.512
351.801
358.046
364.235
370.365
376.434
382.443
388.387
394.255
400.034
405.708
411.26
416.67
421.914
426.966
431.806
436.411
440.767
444.855
448.66
452.163
455.346
458.191
460.681
462.798
464.523
465.84
466.733
467.19
467.197
466.746
465.83
464.442
462.578
460.237
457.42
454.129
450.369
446.146
441.471
436.353
430.806
424.845
418.487
411.75
404.656
397.226
389.484
381.455
373.163
364.636
355.9
346.983
337.912
328.714
319.418
310.051
300.641
291.214
281.797
272.416
263.095
253.857
244.724
235.717
226.856
218.158
209.638
201.312
193.191
185.286
177.605
170.157
162.945
155.973
149.243
142.755
136.508
130.499
124.723
119.174
113.845
108.728
103.814
99.091
94.55
90.178
85.963
81.894
77.957
74.14
70.43
66.813
63.278
59.811
56.399
53.031
49.693
46.376
43.069
39.763
36.45
33.122
29.773
26.398
22.993
19.555
16.08
12.568
9.016
5.427
1.801
-1.858
-5.548
-9.265
-13.002
-16.754
-20.514
-24.274
-28.029
-31.773
-35.497
-39.194
-42.858
-46.48
-50.054
-53.571
-57.023
-60.403
-63.702
-66.914
-70.031
-73.05
-75.967
-78.777
-81.479
-84.074
-86.56
-88.939
-91.209
-93.372
-95.427
-97.375
-99.215
-100.95
-102.581
-104.11
-105.545
-106.893
-108.162
-109.356
-110.483
-111.545
-112.55
-113.501
-114.398
-115.241
-116.033
-116.784
-117.514
-118.24
-118.971
-119.714
-120.471
-121.238
-122.015
-122.794
-123.547
-124.25
-124.881
-125.425
-125.898
-126.309
-126.658
-126.939
-127.126
-127.206
-127.196
-127.116
-126.98
-126.814
-126.643
-126.52
-126.548
-126.822
-127.433
-128.453
-129.907
-131.827
-134.224
-137.119
-140.588
-144.609
-149.058
-153.767
-158.454
-162.86
-166.883
-170.296
-172.658
-173.817
-173.768
-172.708
-171.449
-170.554
-170.087
-170.522
-172.551
-176.343
-181.946
-188.071
-191.567
-190.299
-183.647
-173.081
-161.347
-149.578
-136.57
-116.737
-84.341
-36.78
27.079
100.87
173.049
232.59
265.32
260.162
215.409
133.217
21.164
-106.771
-239.064
-363.871
-466.687
-539.029
-576.199
-578.505
-555.538
-516.961
-471.308
-426.577
-385.232
-349.055
-318.29
-289.47
-261.219
-232.643
-204.629
-181.116
-163.897
-153.485
-148.983
-147.587
-147.508
-147.337
-145.814
-142.76
-138.186
-132.179
-125.228
-117.73
-110.055
-102.926
-97.041
-92.73
-90.021
-88.63
-88.171
-88.388
-89.067
-89.917
-90.566
-90.696
-90.141
-88.88
-86.969
-84.461
-81.37
-77.703
-73.54
-68.997
-64.202
-59.303
-54.375
-49.448
-44.564
-39.752
-35.051
-30.517
-26.164
-21.976
-17.947
-14.072
-10.349
-6.788
-3.368
-0.041
3.247
6.554
9.923
13.371
16.915
20.571
24.348
28.251
32.27
36.383
40.573
44.832
49.15
53.518
57.922
62.337
66.738
71.102
75.404
79.621
83.73
87.705
91.525
95.171
98.625
101.874
104.899
107.683
110.207
112.453
114.406
116.049
117.367
118.347
118.976
119.246
119.15
118.684
117.845
116.633
115.05
113.1
110.789
108.125
105.117
101.779
98.123
94.165
89.924
85.419
80.669
75.698
70.529
65.187
59.697
54.084
48.374
42.594
36.771
30.93
25.1
19.306
13.573
7.927
2.392
-3.007
-8.25
-13.315
-18.185
-22.842
-27.271
-31.46
-35.397
-39.074
-42.483
-45.618
-48.478
-51.059
-53.363
-55.392
-57.15
-58.642
-59.878
-60.865
-61.613
-62.136
-62.446
-62.558
-62.485
-62.244
-61.85
-61.321
-60.673
-59.924
-59.09
-58.191
-57.242
-56.261
-55.264
-54.267
-53.283
-52.328
-51.412
-50.547
-49.743
-49.008
-48.349
-47.771
-47.28
-46.88
-46.573
-46.359
-46.239
-46.21
-46.27
-46.415
-46.64
-46.937
-47.299
-47.718
-48.184
-48.688
-49.223
-49.776
-50.339
-50.901
-51.451
-51.98
-52.476
-52.93
-53.331
-53.671
-53.941
-54.134
-54.245
-54.269
-54.203
-54.046
-53.799
-53.462
-53.037
-52.525
-51.928
-51.25
-50.494
-49.663
-48.76
-47.79
-46.759
-45.679
-44.561
-43.418
-42.258
-41.093
-39.933
-38.789
-37.668
-36.573
-35.504
-34.467
-33.472
-32.541
-31.692
-30.935
-30.279
-29.727
-29.277
-28.931
-28.677
-28.487
-28.333
-28.19
-28.051
-27.937
-27.863
-27.833
-27.846
-27.876
-27.915
-27.981
-28.07
-28.176
-28.311
-28.485
-28.753
-29.219
-29.95
-31.012
-32.452
-34.254
-36.421
-38.964
-41.83
-45.033
-48.631
-52.54
-56.669
-60.888
-64.882
-68.422
-71.364
-73.313
-73.844
-72.858
-70.42
-66.989
-63.414
-60.351
-58.351
-58.247
-61
-66.185
-71.999
-76.475
-77.132
-74.721
-73.551
-74.571
-76.428
-73.483
-54.229
-13.713
47.102
123.084
201.655
273.503
331.491
368.016
377.404
351.956
287.223
183.223
47.209
-103.423
-249.848
-371.575
-453.532
-494.639
-500.43
-483.624
-458.693
-430.973
-401.371
-367.711
-325.952
-277.427
-226.392
-177.115
-134.354
-100.505
-75.747
-59.652
-51.038
-48.353
-50.187
-55.043
-61.195
-67.077
-71.419
-73.539
-73.437
-71.44
-68.002
-63.668
-59.08
-54.943
-51.981
-50.505
-50.377
-51.376
-53.191
-55.516
-58.102
-60.563
-62.447
-63.507
-63.674
-62.96
-61.477
-59.289
-56.419
-52.978
-49.112
-44.966
-40.696
-36.376
-32.028
-27.687
-23.393
-19.197
-15.154
-11.279
-7.555
-3.979
-0.544
2.75
5.901
8.943
11.92
14.882
17.881
20.946
24.093
27.337
30.687
34.149
37.722
41.394
45.142
48.948
52.8
56.685
60.592
64.5
68.383
72.219
75.982
79.65
83.199
86.608
89.853
92.916
95.78
98.429
100.85
103.028
104.946
106.589
107.942
108.992
109.724
110.126
110.189
109.905
109.266
108.271
106.919
105.209
103.146
100.734
97.981
94.896
91.489
87.772
83.761
79.471
74.92
70.129
65.117
59.907
54.522
48.987
43.326
37.565
31.729
25.843
19.935
14.029
8.152
2.329
-3.414
-9.053
-14.565
-19.925
-25.114
-30.109
-34.894
-39.452
-43.768
-47.83
-51.626
-55.147
-58.388
-61.343
-64.01
-66.387
-68.476
-70.279
-71.8
-73.047
-74.026
-74.749
-75.225
-75.466
-75.486
-75.3
-74.921
-74.366
-73.65
-72.791
-71.806
-70.71
-69.523
-68.262
-66.943
-65.583
-64.2
-62.809
-61.426
-60.065
-58.739
-57.46
-56.24
-55.086
-54.008
-53.012
-52.103
-51.285
-50.56
-49.931
-49.397
-48.956
-48.606
-48.343
-48.161
-48.055
-48.017
-48.039
-48.113
-48.229
-48.377
-48.55
-48.737
-48.929
-49.115
-49.286
-49.433
-49.545
-49.613
-49.628
-49.58
-49.462
-49.267
-48.989
-48.624
-48.17
-47.627
-46.995
-46.277
-45.475
-44.593
-43.635
-42.605
-41.507
-40.346
-39.127
-37.856
-36.542
-35.197
-33.831
-32.456
-31.082
-29.719
-28.375
-27.06
-25.781
-24.539
-23.341
-22.193
-21.112
-20.121
-19.243
-18.491
-17.872
-17.393
-17.055
-16.858
-16.792
-16.832
-16.954
-17.134
-17.359
-17.632
-17.949
-18.305
-18.676
-19.02
-19.309
-19.545
-19.735
-19.89
-20.03
-20.166
-20.335
-20.627
-21.141
-21.965
-23.179
-24.833
-26.95
-29.568
-32.794
-36.68
-41.168
-46.098
-51.142
-55.941
-60.289
-63.974
-66.617
-67.993
-68.123
-67.243
-66.174
-65.905
-66.957
-69.748
-74.937
-82.797
-92.917
-104.623
-115.384
-121.162
-120.176
-111.501
-95.071
-74.481
-50.109
-18.786
21.237
75.036
144.182
222.654
303.619
374.828
423.495
440.688
417.634
352.194
246.222
106.989
-48.366
-200.844
-328.388
-413.257
-452.585
-452.379
-428.07
-397.498
-368.293
-342.095
-315.549
-282.932
-244.624
-203.899
-164.585
-131.385
-106.143
-88.559
-77.977
-72.839
-71.538
-73.208
-76.825
-81.094
-84.918
-87.258
-87.616
-86.218
-83.479
-79.708
-75.27
-70.609
-66.24
-62.798
-60.548
-59.351
-59.001
-59.256
-59.926
-60.858
-61.781
-62.311
-62.178
-61.274
-59.583
-57.168
-54.071
-50.309
-45.956
-41.152
-36.07
-30.853
-25.575
-20.262
-14.921
-9.573
-4.252
1.007
6.183
11.267
16.249
21.115
25.842
30.423
34.865
39.203
43.491
47.77
52.063
56.379
60.721
65.086
69.476
73.883
78.286
82.667
87.013
91.312
95.561
99.753
103.872
107.9
111.815
115.599
119.236
122.71
126.004
129.104
131.998
134.678
137.14
139.378
141.387
143.158
144.687
145.968
146.996
147.768
148.281
148.532
148.521
148.251
147.725
146.948
145.925
144.663
143.172
141.46
139.538
137.418
135.111
132.631
129.992
127.209
124.299
121.277
118.16
114.966
111.713
108.418
105.099
101.774
98.458
95.169
91.922
88.734
85.619
82.591
79.663
76.849
74.161
71.61
69.206
66.957
64.871
62.954
61.211
59.645
58.259
57.053
56.028
55.181
54.512
54.014
53.685
53.518
53.505
53.639
53.911
54.311
54.83
55.456
56.177
56.983
57.861
58.8
59.788
60.815
61.867
62.934
64.006
65.072
66.121
67.144
68.132
69.076
69.969
70.803
71.573
72.275
72.903
73.457
73.934
74.333
74.654
74.899
75.069
75.167
75.198
75.166
75.079
74.942
74.764
74.553
74.319
74.072
73.822
73.577
73.349
73.145
72.976
72.851
72.779
72.768
72.827
72.965
73.189
73.505
73.921
74.44
75.067
75.802
76.646
77.596
78.652
79.81
81.066
82.414
83.852
85.374
86.975
88.65
90.392
92.192
94.039
95.92
97.822
99.731
101.634
103.519
105.376
107.195
108.971
110.7
112.373
113.982
115.508
116.928
118.23
119.401
120.432
121.326
122.085
122.72
123.251
123.701
124.088
124.429
124.724
124.964
125.146
125.271
125.361
125.443
125.526
125.61
125.689
125.741
125.738
125.638
125.368
124.863
124.063
122.896
121.328
119.349
116.948
114.16
110.953
107.213
102.954
98.289
93.414
88.706
84.476
80.879
78.297
77.229
77.795
79.925
83.15
86.438
88.961
90.107
88.924
84.391
77.054
68.81
61.885
59.428
61.091
62.634
63.205
63.693
69.542
93.228
140.494
211.368
301.116
395.129
481.688
550.998
593.592
605.002
579.081
512.74
406.505
265.489
105.838
-52.504
-186.44
-276.775
-319.504
-321.35
-298.398
-267.528
-236.19
-204.371
-166.914
-121.067
-69.686
-19.418
21.77
51.348
69.942
80.317
86.579
88.797
87.313
83.218
77.016
71.662
69.196
69.669
73.147
78.812
85.486
92.679
99.633
105.166
108.763
110.315
109.912
108.099
105.366
101.968
98.296
94.813
91.813
89.533
88.092
87.429
87.513
88.338
89.856
92.033
94.798
98.038
101.632
105.445
109.379
113.378
117.39
121.372
125.281
129.063
132.691
136.171
139.498
142.666
145.669
148.49
151.144
153.671
156.121
158.549
160.994
163.47
165.994
168.577
171.222
173.932
176.692
179.479
182.276
185.074
187.863
190.638
193.386
196.085
198.714
201.253
203.683
205.987
208.146
210.142
211.96
213.589
215.021
216.247
217.26
218.05
218.607
218.921
218.984
218.788
218.326
217.591
216.578
215.285
213.712
211.861
209.733
207.334
204.668
201.743
198.567
195.149
191.5
187.63
183.552
179.281
174.829
170.213
165.448
160.549
155.534
150.42
145.222
139.956
134.639
129.286
123.913
118.536
113.168
107.824
102.518
97.262
92.07
86.952
81.918
76.976
72.135
67.4
62.775
58.264
53.869
49.59
45.427
41.378
37.441
33.611
29.884
26.256
22.719
19.268
15.895
12.593
9.355
6.172
3.037
-0.059
-3.123
-6.162
-9.184
-12.197
-15.205
-18.217
-21.236
-24.267
-27.316
-30.386
-33.479
-36.598
-39.744
-42.919
-46.121
-49.349
-52.6
-55.872
-59.159
-62.456
-65.757
-69.055
-72.343
-75.614
-78.861
-82.077
-85.253
-88.381
-91.454
-94.464
-97.404
-100.265
-103.04
-105.723
-108.307
-110.789
-113.164
-115.43
-117.586
-119.632
-121.568
-123.395
-125.115
-126.729
-128.239
-129.646
-130.952
-132.161
-133.275
-134.3
-135.242
-136.113
-136.922
-137.683
-138.405
-139.097
-139.77
-140.432
-141.087
-141.737
-142.387
-143.043
-143.724
-144.446
-145.223
-146.064
-146.976
-147.957
-149.004
-150.107
-151.238
-152.372
-153.483
-154.55
-155.582
-156.595
-157.601
-158.605
-159.598
-160.567
-161.522
-162.478
-163.436
-164.408
-165.422
-166.525
-167.816
-169.394
-171.324
-173.67
-176.448
-179.648
-183.273
-187.311
-191.724
-196.528
-201.746
-207.295
-213.089
-218.947
-224.508
-229.449
-233.451
-236.05
-236.827
-235.716
-232.826
-228.623
-224.197
-220.514
-218.403
-219.069
-222.607
-227.604
-233.029
-237.166
-239.74
-243.491
-248.19
-251.071
-246.3
-224.754
-182.954
-123.435
-52.909
19.18
87.132
147.263
194.633
222.859
221.534
181.566
100.474
-19.695
-166.958
-322.144
-465.932
-576.697
-641.765
-662.57
-648.202
-615.713
-579.891
-545.304
-511.538
-474.67
-431.282
-383.407
-334.85
-289.511
-251.253
-221.512
-200.274
-186.941
-180.036
-178.065
-180.003
-184.682
-190.625
-196.446
-200.84
-203.081
-203.218
-201.535
-198.296
-193.882
-188.812
-183.7
-179.249
-175.814
-173.352
-171.711
-170.672
-169.984
-169.395
-168.567
-167.109
-164.816
-161.663
-157.688
-153.002
-147.709
-141.903
-135.73
-129.384
-122.998
-116.637
-110.333
-104.082
-97.902
-91.841
-85.927
-80.167
-74.56
-69.098
-63.782
-58.617
-53.59
-48.664
-43.791
-38.913
-33.992
-29.01
-23.956
-18.821
-13.602
-8.296
-2.91
2.537
8.028
13.553
19.101
24.665
30.231
35.775
41.275
46.706
52.045
57.274
62.368
67.306
72.067
76.632
80.987
85.118
89.007
92.639
95.996
99.06
101.817
104.251
106.348
108.094
109.478
110.491
111.126
111.379
111.248
110.73
109.828
108.545
106.886
104.858
102.471
99.734
96.662
93.269
89.573
85.59
81.342
76.849
72.134
67.221
62.133
56.896
51.535
46.077
40.546
34.971
29.376
23.79
18.236
12.741
7.328
2.023
-3.154
-8.181
-13.038
-17.709
-22.176
-26.425
-30.444
-34.222
-37.75
-41.023
-44.034
-46.782
-49.263
-51.479
-53.433
-55.126
-56.565
-57.756
-58.707
-59.427
-59.926
-60.215
-60.307
-60.214
-59.95
-59.529
-58.964
-58.27
-57.461
-56.55
-55.552
-54.479
-53.345
-52.163
-50.945
-49.702
-48.444
-47.181
-45.921
-44.671
-43.436
-42.221
-41.029
-39.863
-38.726
-37.618
-36.541
-35.496
-34.48
-33.495
-32.537
-31.606
-30.697
-29.807
-28.931
-28.066
-27.208
-26.354
-25.5
-24.644
-23.783
-22.919
-22.051
-21.179
-20.302
-19.421
-18.534
-17.642
-16.746
-15.843
-14.934
-14.018
-13.102
-12.19
-11.29
-10.407
-9.544
-8.708
-7.901
-7.127
-6.387
-5.677
-4.993
-4.339
-3.725
-3.166
-2.684
-2.291
-1.994
-1.801
-1.716
-1.735
-1.843
-2.013
-2.211
-2.425
-2.658
-2.913
-3.207
-3.541
-3.901
-4.283
-4.661
-5.011
-5.323
-5.574
-5.757
-5.901
-6.052
-6.291
-6.728
-7.425
-8.417
-9.741
-11.365
-13.285
-15.558
-18.146
-20.996
-24.029
-27.038
-29.874
-32.501
-34.733
-36.249
-36.901
-36.607
-35.632
-34.661
-34.103
-34.266
-35.712
-39.076
-44.879
-52.525
-59.709
-63.785
-62.565
-57.23
-52.12
-49.471
-50.164
-48.932
-34.23
1.107
61.229
142.357
229.384
306.707
359.412
375.499
351.396
289.022
192.541
70.853
-62.731
-194.812
-308.597
-389.375
-433.475
-443.25
-429.224
-406.238
-381.03
-355.603
-328.281
-294.21
-253.437
-209.398
-165.781
-127.069
-95.975
-72.962
-57.635
-48.907
-45.42
-45.892
-49.196
-54.093
-58.938
-62.33
-63.609
-62.623
-59.675
-55.257
-49.686
-43.345
-36.943
-31.209
-26.532
-22.986
-20.39
-18.476
-17.083
-16.07
-15.17
-14.022
-12.357
-10.062
-7.144
-3.691
0.216
4.529
9.158
13.951
18.776
23.535
28.175
32.703
37.131
41.448
45.65
49.727
53.66
57.447
61.088
64.57
67.9
71.091
74.169
77.184
80.188
83.214
86.289
89.424
92.622
95.887
99.219
102.605
106.038
109.509
113.01
116.541
120.095
123.662
127.228
130.774
134.278
137.723
141.089
144.357
147.507
150.523
153.389
156.091
158.618
160.955
163.086
164.997
166.671
168.095
169.254
170.136
170.727
171.017
170.998
170.664
170.01
169.033
167.731
166.106
164.158
161.892
159.314
156.43
153.249
149.782
146.041
142.041
137.795
133.322
128.637
123.762
118.715
113.517
108.19
102.755
97.234
91.649
86.023
80.377
74.736
69.12
63.55
58.05
52.637
47.333
42.153
37.116
32.236
27.527
23.001
18.669
14.54
10.62
6.916
3.431
0.167
-2.875
-5.697
-8.3
-10.688
-12.867
-14.843
-16.622
-18.213
-19.626
-20.87
-21.956
-22.897
-23.703
-24.388
-24.966
-25.447
-25.846
-26.176
-26.447
-26.673
-26.865
-27.035
-27.191
-27.346
-27.508
-27.685
-27.884
-28.111
-28.372
-28.668
-29.003
-29.377
-29.791
-30.241
-30.728
-31.249
-31.801
-32.381
-32.983
-33.605
-34.24
-34.883
-35.528
-36.168
-36.798
-37.409
-37.997
-38.555
-39.079
-39.565
-40.01
-40.413
-40.771
-41.083
-41.349
-41.568
-41.738
-41.859
-41.928
-41.946
-41.913
-41.832
-41.708
-41.547
-41.357
-41.148
-40.926
-40.699
-40.472
-40.251
-40.037
-39.832
-39.638
-39.464
-39.325
-39.24
-39.222
-39.28
-39.423
-39.646
-39.947
-40.314
-40.726
-41.16
-41.6
-42.03
-42.451
-42.876
-43.312
-43.76
-44.205
-44.623
-45.009
-45.367
-45.71
-46.064
-46.46
-46.943
-47.587
-48.463
-49.636
-51.169
-53.087
-55.39
-58.081
-61.135
-64.602
-68.581
-73.043
-77.898
-82.982
-87.946
-92.497
-96.428
-99.285
-100.582
-100.249
-98.272
-94.988
-91.478
-88.637
-87.176
-88.362
-92.481
-98.125
-104.377
-109.743
-113.355
-117.812
-124.086
-129.658
-129.974
-116.713
-82.571
-27.206
46.017
130.827
217.674
298.863
365.564
407.171
415.439
384.182
313.034
206.627
74.428
-68.558
-206.693
-322.008
-400.512
-439.385
-442.724
-423.236
-395.747
-366.823
-338.302
-307.756
-270.632
-227.674
-182.604
-139.436
-102.756
-74.691
-54.93
-42.653
-36.589
-35.249
-37.229
-41.129
-45.212
-47.875
-48.394
-46.634
-42.774
-37.323
-30.841
-23.827
-17.086
-11.497
-7.415
-4.849
-3.61
-3.335
-3.759
-4.715
-5.88
-6.842
-7.335
-7.175
-6.309
-4.809
-2.702
0.014
3.286
7.029
11.118
15.389
19.728
24.085
28.427
32.744
37.02
41.22
45.322
49.314
53.193
56.96
60.605
64.114
67.49
70.75
73.938
77.117
80.338
83.626
87.001
90.467
94.03
97.696
101.457
105.295
109.193
113.137
117.119
121.135
125.174
129.219
133.247
137.233
141.154
144.987
148.71
152.302
155.74
159.005
162.081
164.958
167.622
170.058
172.251
174.187
175.851
177.231
178.315
179.09
179.549
179.682
179.486
178.958
178.097
176.903
175.38
173.531
171.364
168.886
166.107
163.039
159.693
156.085
152.232
148.15
143.861
139.382
134.737
129.947
125.035
120.024
114.937
109.797
104.625
99.446
94.281
89.152
84.081
79.087
74.192
69.413
64.768
60.273
55.943
51.79
47.826
44.06
40.5
37.154
34.024
31.115
28.428
25.962
23.716
21.687
19.868
18.255
16.838
15.61
14.561
13.679
12.954
12.372
11.922
11.59
11.362
11.225
11.166
11.17
11.224
11.316
11.433
11.565
11.701
11.829
11.943
12.033
12.091
12.113
12.092
12.023
11.906
11.736
11.515
11.241
10.918
10.547
10.133
9.68
9.192
8.676
8.138
7.583
7.02
6.456
5.899
5.357
4.837
4.349
3.899
3.496
3.147
2.856
2.627
2.462
2.363
2.331
2.366
2.466
2.631
2.859
3.148
3.5
3.911
4.377
4.893
5.449
6.039
6.653
7.281
7.913
8.541
9.156
9.751
10.324
10.868
11.377
11.836
12.224
12.521
12.715
12.794
12.752
12.589
12.304
11.907
11.423
10.867
10.257
9.606
8.908
8.165
7.385
6.575
5.765
4.98
4.226
3.5
2.79
2.063
1.29
0.427
-0.596
-1.846
-3.402
-5.341
-7.706
-10.524
-13.804
-17.571
-21.926
-26.933
-32.518
-38.472
-44.462
-50.178
-55.452
-60.056
-63.567
-65.65
-66.257
-65.765
-65
-64.648
-65.116
-66.933
-70.791
-77.255
-85.647
-93.675
-98.768
-99.472
-97.214
-94.774
-92.28
-85.564
-66.802
-29.717
26.467
95.847
168.285
237.95
301.987
357.592
402.356
426.255
416.463
367.857
279.885
159.425
21.993
-119.188
-251.319
-358.95
-433.863
-473.41
-478.617
-460.307
-428.717
-388.297
-344.685
-298.338
-249.29
-202.964
-160.306
-123.113
-94.013
-71.412
-56.578
-50.334
-51.082
-57.8
-67.747
-77.713
-85.68
-90.447
-91.813
-90.102
-85.821
-79.714
-72.572
-65.45
-59.499
-55.222
-52.704
-51.821
-52.165
-53.408
-55.312
-57.456
-59.371
-60.778
-61.481
-61.422
-60.699
-59.343
-57.363
-54.837
-51.846
-48.508
-44.98
-41.364
-37.717
-34.085
-30.484
-26.937
-23.483
-20.144
-16.937
-13.876
-10.957
-8.188
-5.585
-3.142
-0.849
1.333
3.466
5.6
7.762
9.978
12.256
14.606
17.039
19.553
22.137
24.78
27.472
30.207
32.985
35.8
38.641
41.492
44.332
47.142
49.907
52.609
55.231
57.757
60.171
62.461
64.618
66.633
68.494
70.189
71.704
73.027
74.147
75.052
75.732
76.175
76.374
76.322
76.013
75.446
74.616
73.524
72.169
70.554
68.683
66.562
64.197
61.597
58.772
55.733
52.495
49.071
45.477
41.73
37.847
33.847
29.748
25.569
21.33
17.048
12.745
8.438
4.146
-0.11
-4.314
-8.448
-12.494
-16.435
-20.256
-23.943
-27.483
-30.864
-34.077
-37.11
-39.957
-42.611
-45.068
-47.324
-49.377
-51.227
-52.874
-54.323
-55.576
-56.64
-57.52
-58.224
-58.759
-59.136
-59.363
-59.452
-59.412
-59.255
-58.992
-58.635
-58.196
-57.685
-57.115
-56.497
-55.84
-55.154
-54.449
-53.734
-53.015
-52.3
-51.594
-50.904
-50.235
-49.59
-48.971
-48.38
-47.818
-47.284
-46.776
-46.292
-45.829
-45.381
-44.944
-44.514
-44.086
-43.655
-43.213
-42.756
-42.277
-41.771
-41.23
-40.648
-40.018
-39.333
-38.589
-37.78
-36.903
-35.955
-34.935
-33.845
-32.685
-31.457
-30.164
-28.809
-27.394
-25.922
-24.396
-22.819
-21.194
-19.526
-17.821
-16.088
-14.336
-12.571
-10.803
-9.037
-7.279
-5.536
-3.812
-2.107
-0.423
1.233
2.849
4.399
5.864
7.234
8.499
9.651
10.687
11.604
12.409
13.133
13.802
14.439
15.062
15.661
16.233
16.791
17.358
17.971
18.657
19.407
20.214
21.085
22.021
23.024
24.056
24.998
25.739
26.177
26.231
25.896
25.149
23.912
22.135
19.816
17.052
14.126
11.301
8.699
6.483
4.851
3.992
4.12
5.112
6.349
7.205
7.196
5.785
2.474
-3.187
-11.687
-21.851
-30.659
-35.411
-33.403
-25.53
-16.483
-8.273
-1.497
9.328
36.503
87.806
167.02
269.136
377.239
472.396
536.2
556.138
529.101
460.234
359.529
235.694
99.319
-39.683
-170.873
-277.824
-348.762
-379.791
-374.214
-345.523
-307.667
-267.818
-228.429
-187.252
-141.453
-92.933
-45.68
-4.134
27.691
48.941
60.73
64.656
62.908
57.671
50.768
44.204
39.828
38.451
40.168
44.689
51.302
59.196
67.7
75.904
82.863
88.225
91.955
94.216
95.43
95.912
95.875
95.689
95.749
96.291
97.496
99.407
101.942
105.079
108.781
112.967
117.536
122.345
127.262
132.211
137.141
142.022
146.848
151.594
156.244
160.798
165.234
169.539
173.717
177.754
181.653
185.434
189.121
192.769
196.434
200.154
203.96
207.87
211.89
216.027
220.283
224.644
229.101
233.644
238.261
242.949
247.699
252.495
257.322
262.154
266.966
271.733
276.432
281.036
285.521
289.863
294.04
298.032
301.819
305.379
308.692
311.732
314.478
316.908
319.001
320.736
322.093
323.056
323.61
323.743
323.446
322.71
321.529
319.902
317.826
315.304
312.341
308.943
305.118
300.879
296.24
291.217
285.828
280.093
274.036
267.68
261.052
254.177
247.086
239.805
232.366
224.798
217.132
209.399
201.63
193.857
186.109
178.416
170.809
163.314
155.958
148.767
141.762
134.967
128.398
122.075
116.012
110.221
104.714
99.5
94.583
89.969
85.66
81.655
77.954
74.552
71.444
68.623
66.081
63.808
61.793
60.025
58.489
57.173
56.062
55.142
54.399
53.816
53.38
53.076
52.887
52.801
52.803
52.88
53.019
53.208
53.436
53.695
53.976
54.271
54.576
54.884
55.194
55.503
55.809
56.11
56.406
56.697
56.985
57.272
57.558
57.848
58.143
58.446
58.76
59.088
59.431
59.791
60.168
60.561
60.968
61.39
61.824
62.268
62.719
63.175
63.636
64.098
64.559
65.012
65.453
65.873
66.264
66.616
66.916
67.152
67.313
67.389
67.372
67.255
67.033
66.697
66.239
65.644
64.901
64.004
62.943
61.713
60.316
58.757
57.051
55.222
53.29
51.272
49.181
47.02
44.791
42.485
40.097
37.635
35.096
32.477
29.775
26.972
24.053
21.001
17.767
14.281
10.473
6.269
1.631
-3.462
-9.029
-15.067
-21.573
-28.549
-35.923
-43.649
-51.723
-60.055
-68.542
-77.002
-85.068
-92.411
-98.83
-104.026
-107.703
-109.803
-110.336
-109.729
-108.82
-108.153
-108.232
-109.724
-113.138
-118.804
-126.026
-132.369
-135.176
-132.492
-125.337
-117.671
-111.967
-109.083
-103.791
-85.852
-48.629
11.487
88.729
167.312
231.163
265.124
260.131
216.341
138.538
32.634
-93.905
-230.992
-366.918
-484.586
-567.377
-609.148
-612.097
-588.883
-556.818
-524.908
-496.11
-467.951
-434.602
-395.698
-353.962
-312.679
-276.34
-246.86
-224.002
-207.598
-196.682
-189.901
-186.652
-186.27
-187.615
-189.9
-192.301
-193.795
-194.098
-193.389
-191.669
-189.145
-186.23
-183.154
-180.376
-178.482
-177.546
-177.471
-178.167
-179.373
-180.866
-182.455
-183.795
-184.533
-184.515
-183.687
-182.076
-179.782
-176.852
-173.358
-169.424
-165.205
-160.863
-156.492
-152.132
-147.803
-143.529
-139.355
-135.328
-131.465
-127.751
-124.179
-120.738
-117.426
-114.243
-111.157
-108.125
-105.101
-102.032
-98.885
-95.646
-92.299
-88.836
-85.251
-81.543
-77.722
-73.812
-69.826
-65.777
-61.678
-57.541
-53.385
-49.234
-45.113
-41.047
-37.058
-33.17
-29.407
-25.79
-22.34
-19.074
-16.008
-13.158
-10.538
-8.165
-6.054
-4.221
-2.679
-1.442
-0.521
0.073
0.333
0.253
-0.172
-0.942
-2.058
-3.517
-5.315
-7.448
-9.907
-12.683
-15.765
-19.14
-22.794
-26.71
-30.871
-35.257
-39.849
-44.624
-49.56
-54.636
-59.826
-65.108
-70.457
-75.85
-81.262
-86.67
-92.049
-97.379
-102.635
-107.798
-112.846
-117.762
-122.528
-127.127
-131.545
-135.768
-139.786
-143.588
-147.166
-150.514
-153.627
-156.501
-159.135
-161.53
-163.687
-165.609
-167.3
-168.766
-170.014
-171.052
-171.889
-172.534
-172.999
-173.295
-173.434
-173.43
-173.294
-173.041
-172.683
-172.232
-171.702
-171.103
-170.448
-169.746
-169.007
-168.243
-167.461
-166.67
-165.877
-165.089
-164.31
-163.546
-162.799
-162.072
-161.366
-160.68
-160.015
-159.369
-158.742
-158.133
-157.537
-156.954
-156.38
-155.812
-155.245
-154.675
-154.098
-153.508
-152.901
-152.273
-151.62
-150.939
-150.23
-149.491
-148.723
-147.929
-147.111
-146.268
-145.405
-144.522
-143.622
-142.708
-141.78
-140.839
-139.89
-138.939
-137.994
-137.064
-136.154
-135.272
-134.421
-133.609
-132.841
-132.119
-131.439
-130.799
-130.203
-129.666
-129.209
-128.85
-128.595
-128.446
-128.405
-128.47
-128.642
-128.904
-129.22
-129.559
-129.897
-130.236
-130.592
-130.973
-131.368
-131.753
-132.093
-132.376
-132.609
-132.795
-132.926
-133.01
-133.057
-133.121
-133.307
-133.707
-134.391
-135.402
-136.741
-138.397
-140.398
-142.82
-145.679
-148.92
-152.377
-155.747
-158.764
-161.265
-163.036
-163.726
-163.093
-161.068
-157.93
-154.588
-151.982
-150.666
-151.271
-154.5
-160.633
-169.709
-180.329
-188.865
-192.097
-188.446
-178.864
-167.009
-155.128
-141.037
-118.045
-77.459
-14.269
68.468
159.393
241.178
297.724
319.19
300.563
244.849
157.471
42.232
-89.562
-225.674
-351.03
-445.77
-502.722
-523.285
-516.155
-498.106
-477.101
-454.029
-426.989
-390.67
-345.147
-295.168
-245.467
-201.102
-165.413
-139.345
-122.871
-115.105
-114.499
-119.23
-127.576
-137.817
-147.85
-155.872
-160.93
-162.688
-161.458
-157.929
-152.658
-146.244
-139.594
-133.597
-128.749
-125.206
-122.822
-121.283
-120.367
-119.866
-119.452
-118.751
-117.501
-115.583
-113.009
-109.888
-106.317
-102.377
-98.191
-93.887
-89.565
-85.306
-81.135
-77.039
-73.006
-69.028
-65.093
-61.21
-57.392
-53.644
-49.97
-46.37
-42.825
-39.311
-35.79
-32.222
-28.567
-24.791
-20.874
-16.803
-12.573
-8.185
-3.648
1.036
5.864
10.831
15.935
21.171
26.529
31.999
37.566
43.21
48.913
54.654
60.412
66.168
71.903
77.597
83.235
88.799
94.272
99.635
104.868
109.952
114.867
119.595
124.115
128.411
132.465
136.262
139.788
143.032
145.982
148.631
150.97
152.994
154.699
156.084
157.148
157.892
158.322
158.441
158.258
157.782
157.024
155.996
154.712
153.187
151.438
149.481
147.335
145.018
142.549
139.947
137.233
134.426
131.547
128.616
125.655
122.682
119.718
116.781
113.89
111.06
108.308
105.649
103.096
100.66
98.354
96.186
94.164
92.294
90.582
89.031
87.642
86.416
85.352
84.448
83.699
83.102
82.651
82.34
82.163
82.11
82.175
82.349
82.621
82.982
83.423
83.932
84.499
85.114
85.765
86.442
87.136
87.837
88.536
89.225
89.897
90.544
91.161
91.742
92.284
92.782
93.235
93.64
93.999
94.311
94.579
94.805
94.993
95.147
95.271
95.372
95.454
95.522
95.582
95.641
95.705
95.78
95.872
95.99
96.138
96.324
96.554
96.834
97.169
97.563
98.019
98.537
99.117
99.76
100.464
101.227
102.046
102.919
103.844
104.82
105.842
106.906
108.006
109.131
110.274
111.426
112.575
113.713
114.832
115.924
116.983
118.009
118.995
119.934
120.817
121.62
122.325
122.92
123.391
123.732
123.945
124.027
123.989
123.853
123.632
123.343
122.999
122.595
122.133
121.62
121.063
120.491
119.936
119.407
118.905
118.42
117.92
117.378
116.755
115.985
115.001
113.731
112.097
110.047
107.536
104.544
101.043
96.933
92.166
86.815
81.065
75.287
69.867
65.019
60.987
58.171
56.771
56.739
57.724
58.708
58.71
57.283
53.869
47.797
38.876
27.313
14.719
4.695
0.456
3.556
13.031
26.364
42.288
62.31
92.293
137.743
201.188
281.259
368.694
452.431
520.007
559.062
563.93
530.448
460.48
360.705
235.56
95.145
-48.935
-184.995
-295.499
-367.571
-396.614
-383.163
-337.719
-275.675
-209.453
-150.886
-106.541
-75.419
-54.379
-37.221
-19.169
-0.391
17.21
29.777
34.864
33.617
28.286
22.136
18.055
16.919
18.653
22.799
28.589
35.339
42.545
49.45
55.075
58.926
60.91
61.14
60.052
58.084
55.504
52.648
49.933
47.599
45.815
44.71
44.259
44.426
45.226
46.621
48.554
50.977
53.787
56.847
60.063
63.348
66.637
69.908
73.127
76.261
79.29
82.191
84.951
87.572
90.048
92.363
94.522
96.534
98.438
100.295
102.153
104.042
105.985
107.99
110.063
112.212
114.432
116.704
119.016
121.354
123.71
126.081
128.46
130.833
133.182
135.486
137.724
139.881
141.939
143.88
145.687
147.345
148.842
150.171
151.322
152.285
153.048
153.6
153.93
154.029
153.887
153.495
152.847
151.936
150.76
149.317
147.608
145.634
143.398
140.905
138.161
135.175
131.954
128.508
124.85
120.991
116.944
112.725
108.349
103.831
99.19
94.442
89.605
84.699
79.741
74.75
69.742
64.737
59.753
54.806
49.915
45.094
40.361
35.731
31.218
26.836
22.597
18.51
14.585
10.83
7.25
3.852
0.636
-2.393
-5.235
-7.891
-10.362
-12.651
-14.762
-16.7
-18.471
-20.082
-21.54
-22.855
-24.035
-25.089
-26.029
-26.864
-27.604
-28.261
-28.844
-29.365
-29.834
-30.262
-30.66
-31.037
-31.403
-31.768
-32.14
-32.526
-32.933
-33.365
-33.828
-34.325
-34.859
-35.432
-36.044
-36.695
-37.385
-38.112
-38.873
-39.665
-40.484
-41.323
-42.177
-43.039
-43.901
-44.756
-45.596
-46.414
-47.2
-47.949
-48.651
-49.3
-49.886
-50.403
-50.843
-51.2
-51.466
-51.636
-51.705
-51.671
-51.53
-51.285
-50.937
-50.485
-49.935
-49.289
-48.554
-47.733
-46.83
-45.85
-44.799
-43.683
-42.512
-41.294
-40.042
-38.765
-37.48
-36.2
-34.937
-33.705
-32.511
-31.361
-30.266
-29.233
-28.271
-27.4
-26.631
-25.978
-25.452
-25.064
-24.815
-24.701
-24.707
-24.808
-24.986
-25.219
-25.492
-25.796
-26.119
-26.462
-26.821
-27.184
-27.542
-27.884
-28.204
-28.507
-28.819
-29.172
-29.623
-30.257
-31.141
-32.345
-33.933
-35.965
-38.486
-41.513
-45.052
-49.065
-53.549
-58.568
-64.084
-69.974
-76.04
-81.939
-87.344
-92.05
-95.702
-97.791
-98.152
-96.79
-93.999
-90.578
-87.218
-84.463
-83.173
-84.434
-88.033
-92.309
-95.182
-93.701
-87.402
-80.317
-75.218
-72.722
-70.603
-58.109
-24.401
35.687
124.647
233.739
345.835
443.939
509.372
527.255
491.831
403.601
267.929
99.532
-80.724
-250.913
-386.407
-472.001
-507.726
-502.094
-471.257
-428.929
-380.464
-327.495
-271.309
-217.165
-171.266
-138.165
-117.928
-104.185
-92.466
-80.873
-69.647
-62.77
-61.531
-64.454
-69.584
-73.76
-75.141
-73.767
-70.047
-64.652
-58.278
-51.388
-44.493
-38.271
-33.313
-29.79
-27.581
-26.449
-26.062
-26.177
-26.614
-27.081
-27.254
-26.927
-25.974
-24.365
-22.157
-19.371
-16.028
-12.193
-7.971
-3.509
1.061
5.646
10.197
14.693
19.12
23.454
27.676
31.775
35.734
39.545
43.203
46.687
49.998
53.145
56.155
59.082
61.978
64.879
67.812
70.789
73.816
76.899
80.038
83.218
86.43
89.666
92.916
96.183
99.462
102.744
106.016
109.262
112.463
115.601
118.662
121.628
124.483
127.212
129.803
132.246
134.534
136.655
138.598
140.35
141.899
143.234
144.346
145.222
145.854
146.233
146.355
146.215
145.812
145.144
144.211
143.016
141.561
139.853
137.897
135.7
133.271
130.62
127.759
124.7
121.459
118.049
114.487
110.792
106.979
103.069
99.08
95.031
90.941
86.829
82.715
78.619
74.56
70.556
66.627
62.79
59.063
55.462
52.003
48.698
45.56
42.6
39.828
37.252
34.878
32.711
30.756
29.016
27.491
26.181
25.084
24.198
23.518
23.038
22.751
22.65
22.725
22.968
23.367
23.912
24.59
25.39
26.299
27.303
28.389
29.544
30.755
32.007
33.288
34.586
35.887
37.181
38.457
39.705
40.917
42.083
43.199
44.258
45.255
46.186
47.05
47.844
48.567
49.22
49.805
50.323
50.779
51.177
51.522
51.822
52.082
52.312
52.52
52.715
52.907
53.104
53.316
53.554
53.828
54.147
54.521
54.961
55.474
56.07
56.756
57.539
58.425
59.417
60.515
61.721
63.035
64.455
65.979
67.603
69.325
71.14
73.046
75.039
77.112
79.258
81.466
83.728
86.032
88.363
90.707
93.053
95.387
97.7
99.985
102.232
104.432
106.571
108.629
110.59
112.437
114.154
115.731
117.162
118.446
119.593
120.619
121.537
122.361
123.102
123.76
124.339
124.836
125.249
125.59
125.87
126.093
126.265
126.377
126.396
126.295
126.025
125.515
124.722
123.587
122.049
120.064
117.587
114.598
111.113
107.133
102.595
97.485
91.877
85.952
80.041
74.478
69.499
65.367
62.49
61.189
61.482
63.067
65.188
67.013
67.932
67.285
64.172
57.718
48.564
38.909
31.252
28.475
30.067
32.087
34.218
37.65
47.4
74.518
122.946
192.014
278.358
370.315
458.615
534.548
586.571
604.529
577.949
501.108
374.831
211.08
32.814
-135.513
-268.451
-351.175
-385.438
-379.832
-349.07
-306.166
-255.515
-200.709
-146.33
-96.601
-57.113
-29.624
-9.93
5.873
20.192
32.941
40.174
39.696
32.488
20.815
8.605
-1.153
-7.754
-11.264
-12.15
-11.103
-8.681
-5.433
-2.278
-0.132
0.67
0.094
-1.72
-4.431
-7.787
-11.586
-15.456
-18.983
-21.921
-24.102
-25.48
-26.118
-26.031
-25.246
-23.839
-21.933
-19.683
-17.224
-14.645
-11.986
-9.268
-6.504
-3.717
-0.929
1.853
4.604
7.312
9.962
12.527
14.999
17.383
19.699
21.994
24.314
26.689
29.139
31.675
34.292
36.992
39.768
42.6
45.473
48.372
51.284
54.205
57.126
60.033
62.909
65.735
68.485
71.141
73.684
76.093
78.35
80.439
82.344
84.056
85.565
86.859
87.928
88.758
89.339
89.66
89.713
89.487
88.975
88.171
87.072
85.674
83.98
81.988
79.703
77.128
74.269
71.134
67.731
64.072
60.165
56.026
51.667
47.105
42.356
37.438
32.369
27.168
21.856
16.453
10.978
5.453
-0.104
-5.672
-11.233
-16.767
-22.256
-27.683
-33.031
-38.283
-43.424
-48.441
-53.322
-58.057
-62.636
-67.052
-71.3
-75.375
-79.275
-82.999
-86.547
-89.923
-93.13
-96.172
-99.058
-101.795
-104.392
-106.861
-109.213
-111.459
-113.614
-115.692
-117.705
-119.669
-121.596
-123.501
-125.397
-127.298
-129.217
-131.165
-133.155
-135.198
-137.304
-139.483
-141.743
-144.09
-146.531
-149.07
-151.711
-154.454
-157.299
-160.246
-163.291
-166.432
-169.663
-172.979
-176.372
-179.832
-183.35
-186.915
-190.516
-194.139
-197.771
-201.397
-205.003
-208.576
-212.102
-215.57
-218.966
-222.277
-225.492
-228.602
-231.594
-234.46
-237.189
-239.772
-242.202
-244.475
-246.584
-248.528
-250.305
-251.916
-253.364
-254.655
-255.793
-256.784
-257.632
-258.345
-258.931
-259.397
-259.75
-259.998
-260.153
-260.229
-260.241
-260.203
-260.129
-260.028
-259.914
-259.797
-259.688
-259.59
-259.506
-259.44
-259.405
-259.419
-259.509
-259.692
-259.977
-260.37
-260.879
-261.514
-262.273
-263.141
-264.086
-265.077
-266.103
-267.172
-268.298
-269.481
-270.704
-271.938
-273.153
-274.349
-275.531
-276.685
-277.792
-278.831
-279.807
-280.785
-281.88
-283.195
-284.792
-286.705
-288.932
-291.511
-294.532
-298.018
-301.892
-305.966
-309.943
-313.573
-316.749
-319.362
-321.177
-322.039
-321.954
-321.214
-320.594
-320.926
-322.689
-326.147
-331.59
-339.234
-348.979
-360.141
-370.457
-376.613
-375.905
-367.046
-351.739
-333.136
-313.712
-293.83
-268.434
-231.577
-179.46
-110.751
-33.59
38.634
92.981
115.204
97.171
39.75
-53.565
-174.853
-310.916
-449.907
-577.685
-677.295
-739.619
-762.582
-751.403
-720.587
-682.702
-643.5
-604.452
-562.214
-513.827
-461.31
-408.581
-360.1
-319.977
-289.577
-268.451
-255.641
-249.491
-248.2
-250.107
-253.329
-255.948
-256.456
-254.089
-248.725
-240.684
-230.561
-219.017
-206.809
-194.83
-183.919
-174.45
-166.403
-159.602
-153.759
-148.63
-143.993
-139.497
-134.729
-129.418
-123.471
-116.897
-109.781
-102.182
-94.13
-85.714
-77.079
-68.396
-59.797
-51.346
-43.053
-34.911
-26.932
-19.139
-11.557
-4.197
2.945
9.872
16.576
23.048
29.288
35.314
41.174
46.934
52.646
58.341
64.04
69.753
75.49
81.26
87.065
92.889
98.722
104.556
110.386
116.212
122.031
127.827
133.586
139.283
144.898
150.415
155.812
161.07
166.168
171.09
175.82
180.347
184.658
188.738
192.573
196.148
199.446
202.456
205.164
207.557
209.624
211.357
212.749
213.796
214.496
214.846
214.847
214.502
213.816
212.794
211.443
209.775
207.798
205.528
202.979
200.168
197.112
193.833
190.349
186.684
182.86
178.9
174.828
170.667
166.439
162.171
157.884
153.602
149.348
145.145
141.013
136.974
133.047
129.25
125.6
122.112
118.799
115.674
112.746
110.024
107.515
105.225
103.157
101.313
99.692
98.293
97.112
96.144
95.382
94.817
94.441
94.242
94.209
94.33
94.592
94.981
95.484
96.086
96.773
97.529
98.341
99.193
100.072
100.964
101.856
102.735
103.59
104.411
105.189
105.914
106.579
107.178
107.704
108.153
108.521
108.807
109.01
109.129
109.168
109.128
109.014
108.832
108.587
108.287
107.939
107.55
107.129
106.684
106.223
105.756
105.291
104.837
104.402
103.996
103.627
103.301
103.026
102.808
102.651
102.558
102.531
102.57
102.676
102.848
103.084
103.38
103.737
104.15
104.619
105.14
105.708
106.317
106.96
107.626
108.304
108.983
109.652
110.302
110.924
111.509
112.052
112.551
112.998
113.384
113.692
113.904
114.007
113.99
113.846
113.58
113.193
112.695
112.11
111.457
110.759
110.033
109.285
108.507
107.699
106.864
106.023
105.201
104.401
103.622
102.849
102.056
101.216
100.285
99.189
97.859
96.222
94.197
91.741
88.84
85.478
81.679
77.406
72.551
67.144
61.313
55.25
49.291
43.706
38.622
34.401
31.552
30.237
30.422
31.749
33.384
34.66
35.151
34.103
30.513
24.819
18.651
13.606
12.232
14.075
15.279
15.677
16.698
23.292
46.004
88.832
151.269
229.526
312.09
390.386
455.385
496.683
509.072
486.052
426.88
336.658
219.361
85.349
-54.043
-187.178
-296.429
-369.263
-401.301
-395.485
-365.544
-326.516
-286.691
-249.222
-211.516
-169.603
-124.537
-79.903
-40.182
-9.723
10.564
21.936
25.885
24.398
19.441
12.631
5.988
1.477
-0.065
1.424
5.626
11.82
19.223
27.18
34.71
40.731
44.769
46.744
46.866
45.667
43.549
40.776
37.753
34.906
32.52
30.825
29.901
29.677
30.134
31.257
33.012
35.373
38.272
41.601
45.25
49.093
53.041
57.048
61.067
65.055
68.972
72.762
76.4
79.895
83.242
86.437
89.474
92.336
95.039
97.625
100.143
102.646
105.172
107.736
110.354
113.039
115.795
118.626
121.521
124.456
127.416
130.392
133.377
136.364
139.341
142.286
145.178
147.998
150.727
153.347
155.839
158.186
160.371
162.384
164.214
165.853
167.292
168.519
169.523
170.294
170.823
171.099
171.114
170.859
170.33
169.521
168.43
167.058
165.404
163.471
161.263
158.786
156.046
153.05
149.81
146.335
142.637
138.729
134.627
130.345
125.9
121.309
116.589
111.761
106.841
101.849
96.805
91.726
86.632
81.543
76.477
71.451
66.486
61.597
56.802
52.117
47.557
43.137
38.868
34.761
30.828
27.076
23.513
20.144
16.974
14.004
11.238
8.674
6.312
4.149
2.182
0.404
-1.19
-2.607
-3.857
-4.947
-5.888
-6.691
-7.367
-7.926
-8.382
-8.745
-9.029
-9.246
-9.407
-9.526
-9.614
-9.683
-9.745
-9.811
-9.891
-9.993
-10.127
-10.3
-10.517
-10.786
-11.111
-11.494
-11.938
-12.447
-13.019
-13.654
-14.351
-15.106
-15.916
-16.776
-17.68
-18.621
-19.592
-20.584
-21.589
-22.6
-23.608
-24.604
-25.579
-26.524
-27.432
-28.292
-29.097
-29.838
-30.507
-31.097
-31.602
-32.017
-32.339
-32.567
-32.699
-32.736
-32.679
-32.53
-32.292
-31.967
-31.558
-31.067
-30.496
-29.853
-29.143
-28.374
-27.557
-26.706
-25.831
-24.946
-24.06
-23.185
-22.331
-21.501
-20.702
-19.941
-19.228
-18.583
-18.025
-17.569
-17.225
-17.001
-16.895
-16.903
-17.015
-17.207
-17.456
-17.74
-18.038
-18.346
-18.671
-19.013
-19.367
-19.712
-20.022
-20.294
-20.533
-20.755
-20.987
-21.257
-21.611
-22.13
-22.888
-23.954
-25.408
-27.301
-29.653
-32.487
-35.787
-39.582
-43.965
-48.914
-54.3
-59.884
-65.283
-70.18
-74.403
-77.603
-79.299
-79.295
-77.607
-74.729
-71.671
-69.092
-67.432
-67.443
-69.864
-75.012
-81.948
-87.983
-90.162
-86.917
-79.566
-70.749
-60.389
-45.635
-20.398
21.556
80.48
152.341
230.08
304.98
370.335
419.829
446.477
442.31
400.148
317.168
194.717
43.548
-117.511
-268.101
-385.796
-457.323
-482.623
-468.844
-431.405
-383.421
-331.949
-282.342
-235.092
-191.781
-154.453
-121.606
-93.504
-69.607
-49.605
-36.238
-30.41
-31.647
-38.482
-47.534
-55.991
-62.112
-65.09
-65.154
-62.758
-58.413
-52.811
-46.653
-40.858
-36.342
-33.474
-32.232
-32.373
-33.5
-35.307
-37.57
-39.947
-42.047
-43.621
-44.51
-44.679
-44.206
-43.124
-41.438
-39.2
-36.495
-33.442
-30.204
-26.899
-23.581
-20.287
-17.032
-13.835
-10.73
-7.739
-4.875
-2.144
0.453
2.902
5.189
7.309
9.28
11.142
12.958
14.777
16.627
18.531
20.496
22.532
24.646
26.837
29.089
31.39
33.731
36.109
38.526
40.977
43.451
45.933
48.405
50.849
53.251
55.594
57.862
60.04
62.113
64.071
65.906
67.61
69.172
70.579
71.821
72.884
73.759
74.434
74.899
75.143
75.158
74.94
74.482
73.783
72.839
71.651
70.22
68.548
66.638
64.497
62.13
59.545
56.752
53.762
50.586
47.238
43.733
40.086
36.315
32.435
28.466
24.425
20.33
16.201
12.055
7.912
3.791
-0.29
-4.312
-8.257
-12.106
-15.844
-19.455
-22.922
-26.234
-29.378
-32.343
-35.119
-37.698
-40.073
-42.239
-44.191
-45.928
-47.447
-48.75
-49.838
-50.715
-51.385
-51.855
-52.131
-52.221
-52.135
-51.883
-51.476
-50.925
-50.243
-49.443
-48.538
-47.542
-46.468
-45.331
-44.145
-42.924
-41.68
-40.426
-39.176
-37.941
-36.732
-35.56
-34.434
-33.363
-32.354
-31.415
-30.551
-29.764
-29.06
-28.438
-27.901
-27.449
-27.079
-26.789
-26.576
-26.435
-26.361
-26.349
-26.388
-26.472
-26.591
-26.734
-26.892
-27.053
-27.206
-27.338
-27.438
-27.496
-27.5
-27.44
-27.303
-27.081
-26.764
-26.343
-25.811
-25.16
-24.385
-23.481
-22.445
-21.278
-19.981
-18.553
-16.998
-15.318
-13.519
-11.607
-9.587
-7.462
-5.24
-2.928
-0.538
1.918
4.427
6.978
9.554
12.139
14.717
17.272
19.792
22.27
24.695
27.056
29.338
31.521
33.594
35.546
37.367
39.046
40.576
41.958
43.205
44.341
45.379
46.329
47.197
47.977
48.677
49.307
49.862
50.35
50.769
51.114
51.394
51.618
51.764
51.796
51.663
51.283
50.609
49.618
48.267
46.525
44.347
41.695
38.575
35.016
31.043
26.619
21.713
16.39
10.858
5.453
0.53
-3.634
-6.809
-8.592
-8.631
-6.927
-3.788
0.024
3.623
6.363
7.544
6.161
1.257
-6.476
-14.76
-21.059
-22.351
-19.283
-16.095
-13.01
-9.169
0.205
27.029
75.976
147.973
241.511
343.41
441.12
521.416
568.021
572.286
529.884
442.301
317.213
165.73
3.612
-152.168
-282.516
-372.639
-418.978
-425.015
-401.721
-361.902
-312.347
-258.924
-207.782
-162.734
-127.889
-103.541
-83.869
-64.542
-43.74
-22.049
-4.107
7.089
11.837
11.595
9.357
7.759
7.917
10.128
14.108
19.398
25.592
32.367
39.342
45.797
50.958
54.457
56.247
56.589
55.915
54.51
52.576
50.429
48.445
46.917
46.069
45.973
46.568
47.821
49.721
52.241
55.329
58.892
62.792
66.884
71.066
75.275
79.476
83.639
87.724
91.685
95.486
99.117
102.587
105.896
109.042
112.016
114.821
117.486
120.069
122.632
125.218
127.85
130.54
133.299
136.133
139.049
142.039
145.082
148.159
151.257
154.368
157.486
160.598
163.683
166.717
169.674
172.532
175.27
177.867
180.302
182.553
184.604
186.441
188.054
189.429
190.553
191.411
191.988
192.273
192.254
191.921
191.264
190.276
188.952
187.289
185.288
182.95
180.277
177.274
173.948
170.308
166.364
162.127
157.611
152.831
147.805
142.551
137.089
131.439
125.623
119.665
113.587
107.413
101.168
94.875
88.557
82.24
75.947
69.701
63.525
57.44
51.467
45.628
39.939
34.418
29.081
23.941
19.01
14.299
9.817
5.57
1.564
-2.196
-5.71
-8.977
-11.999
-14.778
-17.319
-19.63
-21.717
-23.59
-25.26
-26.736
-28.031
-29.157
-30.128
-30.957
-31.659
-32.247
-32.738
-33.145
-33.484
-33.767
-34.01
-34.225
-34.423
-34.616
-34.814
-35.027
-35.262
-35.526
-35.825
-36.164
-36.549
-36.982
-37.464
-37.998
-38.582
-39.215
-39.894
-40.615
-41.373
-42.163
-42.978
-43.811
-44.656
-45.507
-46.355
-47.193
-48.013
-48.806
-49.566
-50.284
-50.953
-51.565
-52.114
-52.594
-53.002
-53.334
-53.588
-53.765
-53.864
-53.888
-53.841
-53.725
-53.545
-53.304
-53.007
-52.659
-52.266
-51.832
-51.364
-50.869
-50.359
-49.846
-49.341
-48.855
-48.399
-47.98
-47.61
-47.297
-47.039
-46.84
-46.701
-46.633
-46.652
-46.777
-47.013
-47.369
-47.844
-48.436
-49.143
-49.949
-50.82
-51.728
-52.643
-53.556
-54.486
-55.443
-56.429
-57.442
-58.456
-59.458
-60.464
-61.468
-62.463
-63.461
-64.475
-65.567
-66.849
-68.402
-70.293
-72.572
-75.217
-78.223
-81.593
-85.289
-89.329
-93.76
-98.507
-103.486
-108.593
-113.565
-118.171
-122.175
-125.092
-126.439
-126.043
-123.945
-120.541
-116.528
-112.556
-109.418
-108.185
-109.88
-114.106
-119.175
-123.351
-125.202
-126.146
-128.929
-132.804
-133.825
-124.59
-97.241
-50.384
11.864
82.094
152.113
216.386
269.368
304.78
314.099
287.946
222.762
118.933
-15.699
-164.358
-309.8
-432.173
-515.392
-556.527
-560.03
-538.577
-507.773
-474.68
-441.336
-405.819
-364.065
-317.23
-269.154
-224.176
-186.926
-158.814
-139.05
-125.475
-115.16
-106.85
-99.211
-92.396
-87.139
-80.43
-70.738
-56.145
-34.357
-9.579
