Name,Waqar Muhammad
Date of Birth,"Jul 5, 1993"
Recorded Date,2025-01-05 21:44:08 -0500
Classification,Sinus Rhythm
Symptoms,
Software Version,1.90
Device,"Watch6,7"
Sample Rate,512 hertz


Lead,Lead I
Unit,µV

85.6
127.623
146.67
140.923
115.521
85.02
62.383
53.066
57.595
67.831
77.569
84.543
86.972
88.185
89.808
90.82
91.314
89.381
83.076
71.931
56.702
40.236
25.679
15.989
10.313
3.806
-4.061
-11.676
-12.594
6.861
52.123
123.239
216.22
316.129
410.476
487.345
532.286
536.681
494.135
403.739
271.712
109.745
-64.433
-232.67
-375.162
-477.677
-539.048
-564.03
-565.194
-554.856
-534.286
-503.097
-461.451
-412.44
-366.257
-330.82
-306.621
-288.315
-268.511
-243.229
-214.034
-186.415
-164.542
-149.298
-139.673
-133.373
-128.906
-125.999
-124.37
-123.546
-122.879
-121.873
-120.244
-117.889
-114.908
-111.446
-107.708
-104.069
-101.016
-98.894
-97.853
-97.758
-98.183
-98.638
-99.386
-101.388
-104.887
-108.913
-110.081
-103.469
-86.871
-62.147
-35.359
-15.372
-7.928
-12.974
-26.392
-39.99
-45.833
-41.02
-25.059
-1.81
21.533
40.791
52.962
57.977
59.58
60.138
61.611
65.009
69.432
74.081
77.266
77.573
76.278
77.48
88.057
114.104
153.231
193.24
216.053
203.496
152.01
76.987
5.099
-32.943
-20.379
38.241
123.113
206.294
266.417
293.372
288.829
263.093
226.332
191.338
168.062
159.828
168.672
188.408
209.184
225.866
233.924
234.166
231.98
229.817
229.546
231.596
233.798
235.175
235.548
234.86
233.768
232.514
230.928
229.111
227.306
225.995
225.697
225.682
225.003
224.054
222.658
222.247
224.322
225.796
224.752
218.902
205.473
187.983
169.319
151.338
137.101
125.283
114.288
103.823
92.57
80.685
68.794
56.886
45.175
33.583
21.827
9.725
-2.288
-12.895
-21.107
-26.802
-33.028
-46.06
-71.043
-110.014
-156.645
-196.964
-218.361
-213.503
-187.811
-158.164
-140.734
-145.875
-172.349
-208.953
-245.656
-277.411
-304.857
-331.812
-357.638
-377.663
-385.551
-376.477
-353.419
-322.113
-292.008
-275.519
-279.606
-311.523
-370.172
-439.958
-501.085
-528.618
-506.755
-442.208
-355.702
-276.661
-229.32
-218.27
-233.688
-259.081
-280.363
-293.812
-300.203
-298.998
-285.855
-253.5
-201.981
-141.264
-87.218
-56.193
-53.863
-74.457
-106.784
-138.556
-161.628
-172.335
-169.872
-154.326
-128.017
-95.762
-61.09
-28.071
1.632
29.458
54.363
76.573
96.386
113.695
132.803
154.777
176.676
192.717
191.542
168.404
127.223
79.146
43.304
33.453
55.996
107.456
171.906
230.216
260.575
247.848
192.701
109.537
27.594
-22.529
-24.941
17.402
81.064
134.809
158.003
146.448
112.719
77.241
53.626
45.569
48.438
53.689
56.658
56.569
54.691
53.631
54.859
59.041
66.795
78.057
92.512
109.931
129.865
151.496
173.463
194.002
211.525
224.779
232.765
234.864
230.631
221.09
209.325
198.025
188.24
177.79
162.399
140.526
115.925
98.833
100.196
125.708
174.633
236.74
300.011
356.171
396.782
418.486
419.731
396.797
353.929
299.435
243.875
203.807
187.972
197.53
228.497
265.919
297.19
314.404
312.749
296.58
270.299
236.236
197.794
158.618
126.305
110.725
118.071
145.179
179.198
203.826
206.234
183.35
141.394
90.738
41.529
1.628
-22.385
-26.626
-10.919
20.563
57.416
88.161
105.928
110.147
107.58
107.643
115.646
127.296
128.962
104.189
38.991
-66.476
-195.798
-327.047
-434.83
-503.661
-534.961
-534.743
-516.746
-497.436
-486.138
-494.869
-533.366
-600.911
-695.493
-809.484
-927.948
-1041.086
-1139.181
-1211.237
-1254.374
-1268.843
-1257.601
-1227.912
-1183.575
-1124.497
-1050.061
-964.923
-880.95
-812.775
-774.641
-766.24
-771.06
-769.136
-741.461
-685.024
-617.399
-560.449
-531.384
-535.429
-561.352
-594.445
-627.748
-657.729
-685.696
-711.91
-726.509
-722.427
-695.728
-645.57
-582.583
-516.098
-456.458
-417.583
-405.307
-423.889
-468.733
-523.585
-574.304
-606.602
-614.677
-603.308
-577.684
-546.135
-515.812
-492.692
-484.656
-495.288
-523.173
-558.721
-585.267
-590.813
-569.97
-527.928
-481.478
-443.129
-420.417
-415.311
-418.636
-424.222
-429.271
-430.911
-432.864
-437.299
-443.278
-450.879
-457.321
-459.75
-457.383
-449.573
-436.698
-420.112
-401.094
-380.891
-361.177
-343.568
-329.313
-319.492
-314.475
-313.738
-316.368
-321.295
-327.179
-332.945
-337.789
-340.814
-341.54
-340.013
-336.473
-331.49
-325.852
-319.919
-313.883
-308.249
-303.214
-298.786
-295.304
-291.92
-287.702
-283.565
-279.657
-277.552
-279.421
-282.938
-286.391
-287.475
-282.937
-275.45
-267.662
-261.455
-259.506
-259.937
-260.956
-262.193
-262.758
-263.697
-265.675
-268.316
-271.743
-275.757
-280.075
-284.746
-289.516
-294.022
-298.4
-302.795
-307.235
-311.808
-316.456
-321.082
-325.751
-330.534
-335.294
-339.867
-344.131
-347.969
-351.395
-354.469
-357.213
-359.634
-361.76
-363.617
-365.227
-366.616
-367.777
-368.683
-369.317
-369.672
-369.76
-369.613
-369.256
-368.698
-367.935
-366.953
-365.729
-364.251
-362.508
-360.486
-358.18
-355.592
-352.729
-349.611
-346.262
-342.702
-338.944
-334.998
-330.875
-326.587
-322.152
-317.588
-312.913
-308.148
-303.311
-298.424
-293.509
-288.583
-283.663
-278.761
-273.889
-269.06
-264.285
-259.577
-254.948
-250.408
-245.969
-241.641
-237.435
-233.36
-229.422
-225.627
-221.979
-218.481
-215.134
-211.939
-208.894
-205.997
-203.244
-200.632
-198.156
-195.809
-193.586
-191.477
-189.477
-187.575
-185.763
-184.029
-182.364
-180.756
-179.194
-177.664
-176.155
-174.654
-173.147
-171.621
-170.063
-168.459
-166.795
-165.058
-163.233
-161.307
-159.268
-157.103
-154.801
-152.35
-149.743
-146.97
-144.022
-140.895
-137.583
-134.082
-130.389
-126.503
-122.423
-118.149
-113.683
-109.028
-104.188
-99.169
-93.976
-88.617
-83.102
-77.441
-71.647
-65.735
-59.72
-53.619
-47.447
-41.226
-34.972
-28.706
-22.444
-16.203
-10.003
-3.863
2.199
8.163
14.011
19.727
25.293
30.695
35.918
40.95
45.783
50.412
54.828
59.024
62.991
66.713
70.183
73.395
76.35
79.048
81.495
83.698
85.675
87.454
89.059
90.517
91.853
93.083
94.23
95.318
96.374
97.431
98.524
99.664
100.85
102.082
103.345
104.631
105.919
107.144
108.225
109.083
109.639
109.833
109.629
108.966
107.761
106.007
103.748
101.112
98.338
95.611
93.056
90.849
89.196
88.211
87.963
88.348
88.987
89.658
90.205
90.445
90.391
90.04
89.303
88.358
87.581
88.144
92.35
101.938
117.99
138.463
158.004
173.67
184.675
196.523
220.647
263.638
327.736
406.617
485.226
551.134
593.32
604.762
583.479
526.018
431.818
304.385
152.633
-5.154
-148.304
-258.506
-324.339
-347.436
-336.656
-304.025
-262.326
-218.736
-178.452
-144.876
-116.893
-92.892
-68.891
-40.962
-9.843
21.818
49.866
70.789
84.393
92.244
96.185
97.542
97.178
95.623
93.538
91.954
91.335
91.654
92.967
95.143
97.844
100.825
103.609
105.58
106.607
106.793
106.251
105.224
103.935
102.57
101.456
100.955
101.228
102.321
104.204
106.768
109.947
113.681
117.847
122.299
126.893
131.509
136.082
140.581
144.967
149.193
153.215
157.007
160.57
163.921
167.075
170.047
172.851
175.517
178.085
180.605
183.128
185.706
188.374
191.161
194.093
197.19
200.467
203.934
207.592
211.434
215.46
219.665
224.048
228.605
233.325
238.196
243.205
248.335
253.572
258.898
264.298
269.754
275.25
280.769
286.293
291.805
297.287
302.717
308.073
313.33
318.465
323.454
328.272
332.894
337.298
341.46
345.358
348.972
352.283
355.272
357.922
360.218
362.144
363.691
364.846
365.602
365.953
365.895
365.426
364.546
363.257
361.565
359.475
356.997
354.141
350.918
347.344
343.435
339.208
334.684
329.883
324.828
319.543
314.053
308.383
302.56
296.611
290.562
284.441
278.275
272.09
265.914
259.771
253.687
247.686
241.791
236.024
230.406
224.956
219.692
214.63
209.785
205.172
200.8
196.68
192.821
189.229
185.908
182.863
180.092
177.598
175.375
173.422
171.732
170.297
169.11
168.161
167.438
166.929
166.622
166.502
166.554
166.763
167.114
167.59
168.176
168.854
169.609
170.424
171.285
172.176
173.081
173.988
174.88
175.746
176.572
177.346
178.056
178.693
179.245
179.705
180.064
180.315
180.453
180.472
180.369
180.14
179.784
179.3
178.687
177.946
177.079
176.087
174.975
173.746
172.405
170.957
169.406
167.759
166.022
164.201
162.303
160.333
158.298
156.205
154.061
151.874
149.65
147.397
145.124
142.837
140.547
138.259
135.983
133.726
131.494
129.297
127.139
125.028
122.971
120.973
119.04
117.177
115.389
113.681
112.056
110.517
109.066
107.706
106.437
105.261
104.177
103.187
102.289
101.484
100.77
100.147
99.61
99.159
98.789
98.496
98.271
98.107
97.995
97.927
97.892
97.88
97.879
97.881
97.875
97.854
97.808
97.731
97.611
97.439
97.205
96.901
96.516
96.044
95.478
94.812
94.045
93.179
92.212
91.145
89.975
88.688
87.276
85.731
84.049
82.23
80.281
78.21
76.035
73.784
71.483
69.16
66.84
64.534
62.255
60.016
57.827
55.72
53.728
51.869
50.151
48.566
47.087
45.687
44.326
42.941
41.458
39.789
37.85
35.586
32.956
29.949
26.544
22.638
18.171
13.188
7.809
2.297
-3.035
-7.976
-12.241
-15.367
-17.037
-17.157
-15.854
-13.681
-11.448
-9.896
-9.803
-12.233
-17.285
-23.73
-30.464
-35.802
-39.108
-42.369
-45.835
-47.081
-41.932
-22.917
15.8
74.02
149.177
235.275
323.268
406.413
474.879
517.186
526.373
496.252
428.296
330.716
209.369
73.137
-69.767
-211.328
-335.04
-424.908
-470.219
-467.645
-429.358
-375.453
-324.002
-287.568
-266.887
-253.19
-236.832
-211.299
-175.905
-136.279
-99.592
-70.028
-48.874
-34.705
-24.48
-16.848
-11.518
-7.812
-5.361
-3.44
-0.932
2.446
6.489
11.181
16.341
21.57
26.566
30.828
33.746
35.209
35.384
34.45
32.739
30.567
28.183
25.952
24.256
23.288
23.125
23.77
25.138
27.174
29.831
33.01
36.603
40.494
44.57
48.732
52.89
56.961
60.867
64.547
67.959
71.083
73.916
76.467
78.758
80.812
82.659
84.337
85.877
87.324
88.724
90.127
91.586
93.145
94.838
96.693
98.728
100.955
103.383
106.012
108.834
111.844
115.037
118.406
121.947
125.65
129.505
133.496
137.608
141.823
146.128
150.505
154.936
159.405
163.892
168.38
172.852
177.287
181.665
185.962
190.154
194.218
198.129
201.864
205.399
208.712
211.781
214.586
217.109
219.331
221.238
222.813
224.045
224.923
225.438
225.583
225.352
224.744
223.757
222.392
220.653
218.546
216.078
213.258
210.098
206.612
202.813
198.718
194.347
189.718
184.852
179.772
174.5
169.062
163.482
157.785
151.996
146.143
140.25
134.342
128.445
122.583
116.779
111.057
105.437
99.941
94.586
89.392
84.375
79.549
74.928
70.523
66.345
62.402
58.7
55.246
52.042
49.092
46.394
43.95
41.755
39.808
38.103
36.633
35.392
34.372
33.562
32.954
32.537
32.299
32.227
32.311
32.536
32.89
33.361
33.933
34.596
35.336
36.141
36.999
37.899
38.829
39.78
40.743
41.707
42.666
43.612
44.537
45.436
46.304
47.135
47.926
48.672
49.371
50.019
50.615
51.157
51.643
52.073
52.446
52.761
53.02
53.223
53.371
53.465
53.507
53.499
53.443
53.342
53.198
53.013
52.792
52.535
52.248
51.931
51.588
51.223
50.837
50.433
50.013
49.582
49.142
48.695
48.245
47.796
47.352
46.917
46.495
46.091
45.709
45.354
45.032
44.747
44.504
44.309
44.167
44.082
44.06
44.105
44.22
44.411
44.68
45.031
45.466
45.987
46.596
47.292
48.079
48.954
49.918
50.97
52.108
53.329
54.631
56.008
57.457
58.969
60.535
62.147
63.795
65.466
67.149
68.832
70.501
72.144
73.752
75.313
76.814
78.242
79.584
80.827
81.959
82.97
83.846
84.58
85.161
85.586
85.854
85.962
85.906
85.68
85.27
84.667
83.868
82.87
81.672
80.282
78.708
76.966
75.085
73.091
71.005
68.846
66.627
64.362
62.073
59.786
57.532
55.346
53.247
51.246
49.346
47.531
45.773
44.037
42.265
40.392
38.359
36.102
33.564
30.695
27.444
23.746
19.516
14.717
9.374
3.634
-2.247
-7.979
-13.262
-17.773
-21.163
-23.178
-23.742
-23.119
-21.893
-20.762
-20.469
-21.638
-24.696
-29.989
-37.629
-47.011
-56.982
-65.277
-68.398
-63.526
-49.226
-26.637
0.468
28.854
58.737
94.812
143.994
211.173
294.665
384.356
464.879
520.532
538.312
511.249
439.808
328.438
186.817
29.597
-128.046
-268.893
-377.713
-447.292
-477.932
-478.391
-462.449
-441.262
-419.78
-397.291
-369.949
-334.827
-293.309
-249.123
-206.087
-167.6
-134.967
-108.309
-87.75
-72.867
-62.877
-57.069
-54.675
-54.631
-56.005
-57.821
-58.956
-58.896
-57.647
-55.32
-52.2
-48.749
-45.376
-42.632
-41.212
-41.348
-42.951
-45.836
-49.635
-53.995
-58.619
-63.106
-67.034
-70.177
-72.45
-73.851
-74.479
-74.403
-73.685
-72.438
-70.786
-68.855
-66.764
-64.612
-62.494
-60.5
-58.714
-57.205
-56.019
-55.178
-54.688
-54.544
-54.726
-55.211
-55.968
-56.958
-58.148
-59.495
-60.953
-62.473
-63.998
-65.483
-66.893
-68.201
-69.384
-70.431
-71.33
-72.081
-72.688
-73.155
-73.485
-73.683
-73.748
-73.685
-73.503
-73.212
-72.823
-72.349
-71.8
-71.187
-70.523
-69.821
-69.095
-68.357
-67.62
-66.898
-66.209
-65.57
-65.003
-64.526
-64.158
-63.919
-63.829
-63.907
-64.17
-64.636
-65.319
-66.234
-67.395
-68.813
-70.499
-72.463
-74.711
-77.25
-80.084
-83.215
-86.645
-90.372
-94.391
-98.699
-103.287
-108.148
-113.269
-118.638
-124.24
-130.059
-136.078
-142.277
-148.635
-155.13
-161.74
-168.441
-175.207
-182.015
-188.839
-195.654
-202.434
-209.156
-215.794
-222.326
-228.729
-234.98
-241.058
-246.945
-252.622
-258.071
-263.276
-268.223
-272.899
-277.294
-281.396
-285.2
-288.698
-291.886
-294.762
-297.326
-299.577
-301.52
-303.158
-304.496
-305.543
-306.307
-306.798
-307.028
-307.007
-306.751
-306.272
-305.585
-304.705
-303.649
-302.431
-301.067
-299.574
-297.967
-296.261
-294.473
-292.617
-290.706
-288.756
-286.778
-284.787
-282.793
-280.807
-278.84
-276.9
-274.996
-273.136
-271.325
-269.57
-267.875
-266.243
-264.678
-263.181
-261.754
-260.397
-259.111
-257.894
-256.745
-255.663
-254.644
-253.687
-252.788
-251.944
-251.151
-250.406
-249.705
-249.043
-248.418
-247.826
-247.262
-246.724
-246.209
-245.712
-245.231
-244.763
-244.305
-243.854
-243.408
-242.965
-242.523
-242.079
-241.631
-241.178
-240.718
-240.248
-239.766
-239.271
-238.76
-238.231
-237.682
-237.109
-236.511
-235.883
-235.224
-234.529
-233.795
-233.019
-232.196
-231.322
-230.394
-229.406
-228.353
-227.232
-226.036
-224.761
-223.402
-221.953
-220.41
-218.769
-217.024
-215.171
-213.206
-211.126
-208.929
-206.612
-204.173
-201.612
-198.928
-196.123
-193.199
-190.157
-187.003
-183.739
-180.373
-176.912
-173.366
-169.743
-166.052
-162.306
-158.516
-154.695
-150.855
-147.008
-143.164
-139.338
-135.542
-131.792
-128.101
-124.484
-120.955
-117.526
-114.213
-111.028
-107.978
-105.07
-102.309
-99.701
-97.256
-94.985
-92.895
-90.99
-89.273
-87.745
-86.404
-85.24
-84.236
-83.364
-82.603
-81.934
-81.343
-80.821
-80.349
-79.913
-79.489
-79.053
-78.591
-78.082
-77.51
-76.864
-76.152
-75.402
-74.667
-74.013
-73.494
-73.149
-73.012
-73.124
-73.538
-74.304
-75.467
-77.036
-79.022
-81.483
-84.43
-87.797
-91.399
-94.871
-97.83
-99.992
-101.062
-100.696
-98.697
-95.013
-89.91
-84.218
-78.745
-74.037
-70.786
-69.654
-71.038
-75.295
-81.114
-85.224
-84.898
-77.593
-63.925
-48.065
-31.681
-15.296
5.909
42.617
101.086
184.516
287.968
395.138
488.651
550.662
567.016
533.839
453.935
335.135
190.224
33.155
-122.135
-259.975
-366.997
-435.742
-465.781
-465.582
-447.966
-423.601
-397.416
-368.496
-333.441
-290.067
-240.163
-187.91
-137.695
-93.321
-56.572
-27.914
-7.165
6.539
14.301
17.312
16.971
14.914
12.759
11.964
13.36
17.074
22.876
30.303
38.743
47.453
55.553
62.135
66.729
69.35
70.214
69.708
68.249
66.21
64.065
62.333
61.316
61.13
61.79
63.205
65.309
68.075
71.415
75.214
79.381
83.809
88.41
93.115
97.816
102.414
106.828
110.982
114.839
118.385
121.613
124.529
127.152
129.501
131.609
133.511
135.239
136.836
138.346
139.819
141.314
142.878
144.549
146.359
148.328
150.468
152.789
155.293
157.973
160.825
163.844
167.026
170.367
173.86
177.497
181.263
185.145
189.126
193.194
197.333
201.528
205.764
210.022
214.288
218.546
222.777
226.96
231.075
235.095
238.999
242.761
246.358
249.766
252.959
255.915
258.613
261.033
263.155
264.961
266.435
267.562
268.329
268.725
268.741
268.369
267.604
266.442
264.883
262.928
260.579
257.842
254.723
251.232
247.379
243.179
238.644
233.793
228.644
223.217
217.534
211.618
205.494
199.188
192.726
186.135
179.444
172.679
165.869
159.04
152.221
145.437
138.713
132.076
125.548
119.153
112.911
106.843
100.967
95.3
89.858
84.655
79.703
75.012
70.591
66.447
62.585
59.009
55.72
52.718
50.002
47.567
45.408
43.518
41.89
40.512
39.374
38.464
37.768
37.274
36.965
36.828
36.847
37.005
37.288
37.68
38.165
38.727
39.352
40.025
40.732
41.459
42.193
42.922
43.635
44.32
44.968
45.569
46.116
46.6
47.015
47.356
47.617
47.794
47.886
47.89
47.804
47.629
47.363
47.009
46.568
46.042
45.432
44.743
43.976
43.135
42.225
41.247
40.207
39.109
37.955
36.751
35.501
34.208
32.878
31.514
30.121
28.703
27.264
25.808
24.34
22.864
21.384
19.905
18.429
16.963
15.508
14.071
12.656
11.266
9.906
8.582
7.296
6.055
4.863
3.723
2.643
1.625
0.675
-0.202
-1.001
-1.718
-2.349
-2.889
-3.334
-3.683
-3.931
-4.078
-4.122
-4.061
-3.895
-3.626
-3.253
-2.777
-2.201
-1.528
-0.76
0.097
1.037
2.055
3.14
4.284
5.476
6.706
7.961
9.231
10.504
11.77
13.019
14.242
15.428
16.566
17.644
18.653
19.581
20.42
21.163
21.801
22.33
22.747
23.053
23.248
23.331
23.295
23.124
22.808
22.342
21.724
20.955
20.04
18.983
17.803
16.529
15.188
13.811
12.421
11.026
9.645
8.299
7.017
5.847
4.825
3.965
3.27
2.742
2.367
2.132
2.005
1.897
1.718
1.376
0.779
-0.134
-1.407
-3.112
-5.346
-8.174
-11.592
-15.467
-19.51
-23.429
-26.987
-29.935
-31.969
-32.821
-32.366
-30.824
-28.888
-27.402
-27.05
-28.331
-31.707
-37.553
-45.971
-56.377
-66.543
-73.143
-73.228
-64.932
-49.247
-28.48
-3.859
24.622
61.137
110.343
174.499
254.219
342.802
429.173
500.416
541.16
540.089
491.918
397.893
265.474
108.311
-56.205
-210.802
-336.858
-422.638
-467.407
-476.655
-463.902
-442.342
-416.725
-387.968
-353.5
-310.151
-260.105
-207.742
-157.414
-113.593
-78.336
-51.811
-33.521
-22.148
-16.101
-13.935
-14.195
-15.293
-15.776
-14.458
-10.784
-4.886
2.77
11.568
20.862
29.934
37.98
44.226
48.308
50.299
50.463
49.185
46.835
43.774
40.487
37.483
35.083
33.424
32.525
32.329
32.811
33.969
35.746
38.043
40.762
43.813
47.135
50.68
54.382
58.142
61.836
65.367
68.675
71.728
74.52
77.041
79.285
81.26
83.002
84.549
85.945
87.226
88.422
89.569
90.708
91.889
93.166
94.582
96.162
97.924
99.878
102.032
104.394
106.96
109.716
112.653
115.76
119.028
122.452
126.021
129.72
133.531
137.436
141.418
145.459
149.54
153.642
157.745
161.829
165.873
169.861
173.769
177.577
181.26
184.795
188.158
191.326
194.276
196.987
199.437
201.607
203.479
205.038
206.269
207.16
207.698
207.875
207.682
207.114
206.166
204.836
203.124
201.032
198.563
195.725
192.525
188.973
185.081
180.862
176.333
171.51
166.412
161.059
155.473
149.676
143.692
137.547
131.264
124.87
118.391
111.852
105.28
98.7
92.136
85.612
79.152
72.777
66.51
60.371
54.378
48.551
42.905
37.456
32.219
27.204
22.424
17.885
13.597
9.565
5.791
2.28
-0.969
-3.957
-6.686
-9.159
-11.383
-13.364
-15.11
-16.63
-17.935
-19.036
-19.946
-20.675
-21.239
-21.649
-21.921
-22.066
-22.101
-22.037
-21.89
-21.672
-21.398
-21.08
-20.731
-20.363
-19.987
-19.615
-19.256
-18.92
-18.615
-18.348
-18.126
-17.956
-17.843
-17.791
-17.803
-17.884
-18.034
-18.257
-18.551
-18.918
-19.356
-19.865
-20.444
-21.09
-21.802
-22.576
-23.411
-24.304
-25.252
-26.251
-27.298
-28.39
-29.524
-30.694
-31.898
-33.132
-34.392
-35.675
-36.977
-38.296
-39.627
-40.968
-42.316
-43.668
-45.021
-46.372
-47.718
-49.055
-50.38
-51.69
-52.981
-54.25
-55.493
-56.707
-57.887
-59.031
-60.133
-61.19
-62.195
-63.146
-64.036
-64.861
-65.617
-66.299
-66.902
-67.424
-67.86
-68.207
-68.463
-68.625
-68.69
-68.657
-68.524
-68.29
-67.954
-67.517
-66.979
-66.342
-65.61
-64.789
-63.882
-62.896
-61.838
-60.716
-59.537
-58.31
-57.043
-55.742
-54.416
-53.073
-51.725
-50.382
-49.057
-47.757
-46.496
-45.283
-44.126
-43.036
-42.016
-41.069
-40.199
-39.411
-38.713
-38.121
-37.645
-37.291
-37.062
-36.961
-36.984
-37.126
-37.376
-37.708
-38.103
-38.543
-39.012
-39.506
-40.013
-40.517
-40.996
-41.423
-41.768
-42.019
-42.172
-42.229
-42.206
-42.129
-42.036
-41.987
-42.049
-42.287
-42.762
-43.53
-44.641
-46.132
-48.055
-50.479
-53.427
-56.864
-60.656
-64.549
-68.275
-71.625
-74.37
-76.225
-76.969
-76.502
-75.008
-73.015
-71.156
-69.885
-69.439
-70.165
-72.486
-76.626
-82.319
-87.77
-89.966
-86.625
-76.873
-62.744
-47.735
-32.937
-16.493
8.221
48.363
106.776
181.728
264.24
343.196
407.852
448.17
457.686
430.904
366.223
265.944
136.267
-9.881
-157.731
-290.291
-392.088
-456.379
-482.762
-478.598
-455.795
-422.028
-383.018
-342.639
-301.524
-262.642
-227.62
-194.392
-162.45
-130.83
-100.12
-74.155
-54.846
-42.651
-36.772
-34.874
-35.274
-36.7
-37.99
-38.303
-37.108
-34.347
-30.278
-25.175
-19.419
-13.51
-8.031
-3.697
-0.835
0.679
1.071
0.644
-0.326
-1.627
-2.932
-3.819
-4.047
-3.543
-2.315
-0.467
1.934
4.869
8.256
11.972
15.893
19.885
23.844
27.723
31.479
35.063
38.432
41.541
44.37
46.931
49.241
51.316
53.172
54.822
56.292
57.626
58.873
60.087
61.324
62.624
64.019
65.541
67.211
69.05
71.069
73.268
75.642
78.19
80.911
83.804
86.869
90.098
93.479
97.002
100.652
104.414
108.275
112.216
116.222
120.278
124.366
128.47
132.575
136.662
140.712
144.704
148.614
152.42
156.099
159.627
162.98
166.136
169.073
171.771
174.21
176.372
178.24
179.799
181.036
181.936
182.49
182.688
182.523
181.99
181.084
179.805
178.152
176.129
173.74
170.992
167.892
164.451
160.681
156.593
152.203
147.528
142.584
137.391
131.968
126.337
120.521
114.542
108.424
102.191
95.866
89.473
83.035
76.575
70.116
63.679
57.285
50.955
44.707
38.561
32.534
26.641
20.898
15.317
9.913
4.694
-0.329
-5.149
-9.759
-14.154
-18.328
-22.281
-26.009
-29.514
-32.795
-35.856
-38.7
-41.33
-43.754
-45.978
-48.008
-49.853
-51.522
-53.023
-54.367
-55.562
-56.618
-57.545
-58.354
-59.054
-59.655
-60.167
-60.6
-60.963
-61.266
-61.515
-61.72
-61.889
-62.029
-62.146
-62.247
-62.339
-62.428
-62.518
-62.615
-62.723
-62.846
-62.989
-63.155
-63.345
-63.564
-63.813
-64.093
-64.407
-64.756
-65.142
-65.565
-66.027
-66.528
-67.069
-67.651
-68.274
-68.939
-69.645
-70.394
-71.183
-72.015
-72.888
-73.803
-74.758
-75.753
-76.787
-77.859
-78.967
-80.11
-81.283
-82.485
-83.712
-84.962
-86.23
-87.512
-88.805
-90.103
-91.402
-92.697
-93.982
-95.251
-96.498
-97.717
-98.901
-100.043
-101.136
-102.174
-103.15
-104.056
-104.886
-105.635
-106.297
-106.865
-107.334
-107.7
-107.959
-108.107
-108.143
-108.064
-107.87
-107.562
-107.142
-106.616
-105.986
-105.257
-104.436
-103.53
-102.545
-101.49
-100.371
-99.195
-97.971
-96.71
-95.423
-94.122
-92.818
-91.524
-90.254
-89.021
-87.836
-86.711
-85.649
-84.661
-83.754
-82.94
-82.232
-81.64
-81.169
-80.827
-80.616
-80.535
-80.579
-80.732
-80.971
-81.279
-81.644
-82.058
-82.515
-83.006
-83.518
-84.043
-84.569
-85.088
-85.593
-86.079
-86.543
-87.004
-87.502
-88.082
-88.808
-89.724
-90.848
-92.213
-93.851
-95.793
-98.083
-100.747
-103.769
-107.157
-110.957
-115.157
-119.685
-124.36
-128.825
-132.721
-135.795
-137.798
-138.449
-137.582
-135.155
-131.413
-127.062
-122.923
-119.592
-117.468
-117.038
-118.721
-122.536
-128.07
-133.455
-135.601
-132.92
-124.763
-111.447
-95.218
-75.159
-48.434
-13.119
33.912
91.8
156.108
222.676
284.483
333.534
362.742
363.669
330.072
261.413
159.738
32.483
-106.665
-243.819
-362.031
-446.591
-493.607
-505.604
-493.196
-470.59
-444.494
-416.918
-386.18
-348.148
-303.505
-255.914
-209.341
-168.344
-135.208
-110.137
-92.684
-81.651
-75.627
-73.354
-73.544
-74.745
-75.587
-74.96
-72.32
-67.739
-61.614
-54.463
-46.823
-39.298
-32.578
-27.37
-24.031
-22.489
-22.487
-23.667
-25.664
-28.186
-30.871
-33.261
-35.071
-36.177
-36.542
-36.229
-35.291
-33.726
-31.585
-28.966
-25.948
-22.627
-19.096
-15.409
-11.656
-7.916
-4.252
-0.732
2.599
5.728
8.644
11.352
13.869
16.205
18.38
20.429
22.381
24.274
26.152
28.055
30.031
32.121
34.353
36.752
39.333
42.101
45.059
48.205
51.526
55.015
58.662
62.457
66.389
70.448
74.615
78.876
83.21
87.597
92.019
96.459
100.897
105.316
109.698
114.025
118.281
122.449
126.508
130.439
134.222
137.835
141.259
144.475
147.464
150.209
152.692
154.9
156.82
158.44
159.751
160.744
161.413
161.752
161.757
161.429
160.766
159.77
158.445
156.796
154.83
152.556
149.984
147.126
143.994
140.602
136.966
133.103
129.03
124.766
120.329
115.74
111.02
106.19
101.272
96.287
91.258
86.205
81.15
76.113
71.114
66.172
61.305
56.53
51.863
47.32
42.913
38.657
34.562
30.64
26.899
23.348
19.994
16.841
13.894
11.156
8.629
6.313
4.208
2.314
0.626
-0.858
-2.142
-3.233
-4.135
-4.857
-5.407
-5.791
-6.02
-6.103
-6.049
-5.868
-5.57
-5.165
-4.662
-4.072
-3.403
-2.666
-1.869
-1.021
-0.132
0.791
1.74
2.706
3.684
4.666
5.646
6.618
7.576
8.516
9.432
10.321
11.177
11.997
12.778
13.517
14.21
14.857
15.454
16
16.495
16.936
17.324
17.657
17.934
18.157
18.323
18.434
18.487
18.485
18.426
18.311
18.139
17.912
17.629
17.291
16.9
16.455
15.958
15.41
14.812
14.167
13.476
12.742
11.967
11.154
10.308
9.43
8.526
7.598
6.653
5.694
4.726
3.754
2.784
1.819
0.867
-0.067
-0.978
-1.859
-2.704
-3.508
-4.262
-4.963
-5.602
-6.175
-6.676
-7.099
-7.439
-7.692
-7.854
-7.921
-7.89
-7.759
-7.526
-7.191
-6.753
-6.214
-5.574
-4.837
-4.005
-3.084
-2.081
-1.002
0.145
1.352
2.608
3.906
5.233
6.581
7.943
9.309
10.67
12.015
13.334
14.614
15.847
17.02
18.122
19.144
20.077
20.915
21.656
22.297
22.833
23.259
23.562
23.732
23.763
23.651
23.391
22.99
22.455
21.801
21.055
20.24
19.376
18.484
17.572
16.652
15.74
14.854
14.015
13.252
12.581
12.013
11.553
11.177
10.849
10.517
10.108
9.563
8.826
7.826
6.508
4.833
2.759
0.28
-2.632
-6.091
-10.133
-14.677
-19.584
-24.551
-29.254
-33.488
-36.912
-39.015
-39.524
-38.46
-36.042
-32.925
-29.889
-27.481
-26.482
-28.051
-32.02
-36.806
-41.142
-43.085
-43.062
-44.672
-47.804
-49.494
-43.166
-18.565
28.004
93.463
170.569
248.719
321.976
388.061
443.253
482.617
496.106
472.192
405.904
297.584
156.598
0.402
-153.31
-285.802
-382.399
-438.568
-457.114
-447.064
-421.264
-388.044
-349.989
-309.339
-265.387
-219.161
-175.879
-136.543
-102.672
-75.681
-53.619
-37.516
-27.928
-23.565
-24.047
-27.34
-31.023
-33.822
-34.578
-32.934
-29.273
-23.976
-17.528
-10.537
-3.642
2.462
7.099
9.974
11.207
11.088
9.984
8.233
6.099
3.907
2.053
0.795
0.231
0.371
1.138
2.471
4.353
6.738
9.535
12.644
15.955
19.359
22.778
26.152
29.424
32.546
35.468
38.152
40.584
42.771
44.728
46.47
48.006
49.352
50.536
51.6
52.592
53.566
54.572
55.651
56.835
58.154
59.633
61.289
63.132
65.163
67.379
69.778
72.363
75.134
78.088
81.218
84.515
87.967
91.563
95.287
99.126
103.063
107.083
111.169
115.306
119.476
123.664
127.85
132.013
136.132
140.183
144.141
147.983
151.683
155.217
158.56
161.688
164.579
167.212
169.566
171.622
173.362
174.769
175.828
176.527
176.854
176.799
176.356
175.518
174.283
172.65
170.62
168.197
165.388
162.2
158.644
154.732
150.478
145.9
141.014
135.841
130.402
124.72
118.818
112.724
106.461
100.059
93.543
86.942
80.284
73.595
66.903
60.235
53.617
47.073
40.628
34.306
28.128
22.115
16.287
10.661
5.254
0.079
-4.851
-9.525
-13.935
-18.074
-21.937
-25.523
-28.829
-31.856
-34.608
-37.088
-39.302
-41.258
-42.964
-44.432
-45.671
-46.696
-47.518
-48.152
-48.611
-48.912
-49.069
-49.096
-49.01
-48.826
-48.557
-48.22
-47.827
-47.394
-46.932
-46.454
-45.972
-45.495
-45.034
-44.598
-44.192
-43.825
-43.502
-43.227
-43.004
-42.835
-42.722
-42.667
-42.668
-42.725
-42.836
-42.999
-43.212
-43.47
-43.772
-44.112
-44.487
-44.894
-45.329
-45.788
-46.267
-46.762
-47.272
-47.791
-48.319
-48.851
-49.387
-49.925
-50.463
-51.001
-51.539
-52.077
-52.614
-53.153
-53.695
-54.239
-54.789
-55.345
-55.909
-56.484
-57.072
-57.673
-58.291
-58.927
-59.582
-60.257
-60.954
-61.672
-62.411
-63.17
-63.948
-64.742
-65.549
-66.366
-67.19
-68.017
-68.842
-69.659
-70.464
-71.25
-72.01
-72.739
-73.428
-74.07
-74.659
-75.187
-75.646
-76.029
-76.331
-76.543
-76.662
-76.681
-76.596
-76.402
-76.097
-75.677
-75.14
-74.487
-73.718
-72.833
-71.836
-70.729
-69.521
-68.217
-66.827
-65.36
-63.826
-62.236
-60.603
-58.938
-57.252
-55.556
-53.861
-52.178
-50.521
-48.902
-47.335
-45.833
-44.41
-43.078
-41.847
-40.728
-39.727
-38.846
-38.09
-37.461
-36.965
-36.612
-36.415
-36.377
-36.503
-36.794
-37.241
-37.832
-38.549
-39.363
-40.249
-41.183
-42.14
-43.108
-44.075
-45.027
-45.952
-46.825
-47.613
-48.3
-48.874
-49.331
-49.702
-50.014
-50.312
-50.666
-51.131
-51.762
-52.625
-53.777
-55.261
-57.112
-59.32
-61.896
-64.937
-68.462
-72.399
-76.562
-80.58
-84.106
-86.927
-88.751
-89.163
-87.936
-85.084
-80.973
-76.501
-72.456
-69.424
-68.181
-69.503
-73.94
-80.619
-86.946
-90.067
-87.525
-80.529
-73.3
-67.145
-61.09
-48.153
-16.436
39.568
119.999
216.535
312.971
396.074
454.605
482.715
478.035
437.079
359.657
245.439
100.952
-57.523
-212.08
-340.521
-427.258
-471.533
-479.702
-466.575
-447.214
-426.268
-403.557
-375.644
-338.262
-292.9
-243.925
-195.336
-151.168
-113.733
-83.561
-60.772
-44.905
-34.859
-29.464
-27.866
-28.941
-31.217
-33.379
-34.199
-33.025
-30.009
-25.508
-19.824
-13.435
-6.958
-1.063
3.489
6.364
7.701
7.752
6.866
5.392
3.636
1.975
0.824
0.412
0.8
1.973
3.832
6.299
9.325
12.815
16.657
20.743
24.966
29.236
33.471
37.594
41.534
45.234
48.653
51.773
54.592
57.116
59.366
61.365
63.141
64.727
66.155
67.465
68.704
69.921
71.17
72.495
73.931
75.506
77.242
79.153
81.248
83.531
85.996
88.641
91.463
94.459
97.628
100.962
104.454
108.091
111.86
115.747
119.738
123.818
127.973
132.186
136.439
140.718
145.004
149.28
153.523
157.712
161.822
165.83
169.71
173.438
176.989
180.34
183.466
186.347
188.962
191.291
193.317
195.021
196.39
197.409
198.067
198.353
198.261
197.783
196.915
195.657
194.008
191.97
189.55
186.752
183.585
180.061
176.192
171.993
167.479
162.671
157.586
152.248
146.679
140.903
134.946
128.834
122.593
116.249
109.831
103.365
96.878
90.395
83.943
77.546
71.228
65.012
58.92
52.973
47.191
41.59
36.188
31
26.039
21.317
16.844
12.628
8.676
4.994
1.583
-1.555
-4.42
-7.015
-9.343
-11.411
-13.225
-14.794
-16.127
-17.236
-18.133
-18.831
-19.343
-19.683
-19.866
-19.907
-19.821
-19.623
-19.328
-18.951
-18.506
-18.007
-17.469
-16.904
-16.326
-15.747
-15.178
-14.63
-14.114
-13.639
-13.213
-12.845
-12.54
-12.305
-12.144
-12.061
-12.06
-12.142
-12.308
-12.558
-12.893
-13.309
-13.806
-14.38
-15.029
-15.749
-16.536
-17.386
-18.296
-19.261
-20.277
-21.34
-22.446
-23.59
-24.77
-25.981
-27.219
-28.48
-29.762
-31.059
-32.37
-33.69
-35.017
-36.348
-37.68
-39.009
-40.334
-41.652
-42.96
-44.258
-45.542
-46.811
-48.065
-49.302
-50.521
-51.72
-52.9
-54.058
-55.193
-56.303
-57.386
-58.439
-59.46
-60.445
-61.391
-62.294
-63.152
-63.959
-64.712
-65.408
-66.041
-66.607
-67.103
-67.525
-67.868
-68.13
-68.307
-68.397
-68.398
-68.308
-68.126
-67.852
-67.484
-67.023
-66.468
-65.821
-65.082
-64.253
-63.336
-62.334
-61.251
-60.095
-58.871
-57.589
-56.256
-54.882
-53.479
-52.056
-50.626
-49.197
-47.778
-46.379
-45.009
-43.68
-42.404
-41.19
-40.049
-38.99
-38.022
-37.152
-36.386
-35.729
-35.178
-34.734
-34.398
-34.176
-34.08
-34.121
-34.302
-34.625
-35.09
-35.69
-36.417
-37.253
-38.168
-39.133
-40.121
-41.109
-42.085
-43.035
-43.935
-44.761
-45.479
-46.052
-46.463
-46.704
-46.777
-46.699
-46.502
-46.232
-45.965
-45.788
-45.785
-46.04
-46.625
-47.604
-49.024
-50.941
-53.441
-56.559
-60.267
-64.427
-68.765
-72.972
-76.788
-79.926
-82.034
-82.831
-82.164
-80.195
-77.529
-74.91
-72.946
-72.07
-72.719
-75.343
-80.196
-86.886
-93.366
-96.363
-92.984
-81.718
-64.248
-43.638
-21.362
3.416
36.619
84.604
150.331
233.333
324.985
413.337
485.767
529.141
534.465
495.656
411.821
286.605
129.448
-42.228
-209.973
-352.614
-452.929
-507.147
-517.62
-495.681
-458.426
-415.995
-376.597
-344.523
-316.302
-289.011
-258.856
-222.208
-180.957
-139.396
-102.512
-74.121
-54.668
-42.37
-34.749
-30.382
-28.482
-28.043
-28.111
-27.484
-25.377
-21.889
-17.319
-11.879
-5.939
0.012
5.36
9.322
11.543
12.159
11.448
9.788
7.53
4.966
2.471
0.485
-0.73
-1.084
-0.578
0.685
2.627
5.198
8.311
11.854
15.712
19.771
23.916
28.046
32.074
35.92
39.519
42.826
45.813
48.47
50.809
52.855
54.634
56.178
57.518
58.685
59.724
60.683
61.618
62.588
63.638
64.806
66.123
67.612
69.287
71.161
73.232
75.493
77.94
80.569
83.374
86.353
89.499
92.8
96.243
99.814
103.498
107.28
111.145
115.076
119.055
123.067
127.094
131.12
135.127
139.092
142.994
146.81
150.516
154.088
157.503
160.736
163.765
166.568
169.124
171.414
173.42
175.125
176.514
177.573
178.291
178.658
178.666
178.307
177.579
176.478
175.004
173.16
170.947
168.373
165.445
162.172
158.566
154.64
150.409
145.89
141.1
136.061
130.792
125.317
119.658
113.84
107.888
101.826
95.682
89.479
83.245
77.004
70.78
64.598
58.481
52.451
46.529
40.736
35.09
29.61
24.311
19.21
14.319
9.651
5.217
1.025
-2.917
-6.602
-10.027
-13.189
-16.087
-18.721
-21.094
-23.208
-25.068
-26.681
-28.054
-29.197
-30.118
-30.828
-31.34
-31.665
-31.817
-31.809
-31.654
-31.367
-30.96
-30.449
-29.846
-29.166
-28.421
-27.625
-26.79
-25.928
-25.052
-24.172
-23.3
-22.444
-21.615
-20.821
-20.07
-19.37
-18.726
-18.145
-17.631
-17.19
-16.824
-16.536
-16.329
-16.203
-16.16
-16.198
-16.319
-16.519
-16.799
-17.156
-17.588
-18.093
-18.669
-19.312
-20.02
-20.791
-21.62
-22.506
-23.446
-24.435
-25.472
-26.553
-27.675
-28.835
-30.031
-31.26
-32.517
-33.801
-35.108
-36.435
-37.778
-39.134
-40.5
-41.873
-43.25
-44.627
-46.002
-47.371
-48.732
-50.081
-51.414
-52.728
-54.019
-55.283
-56.515
-57.711
-58.867
-59.977
-61.038
-62.044
-62.991
-63.874
-64.687
-65.425
-66.083
-66.657
-67.141
-67.532
-67.825
-68.016
-68.104
-68.084
-67.957
-67.719
-67.371
-66.911
-66.34
-65.658
-64.867
-63.97
-62.969
-61.867
-60.669
-59.382
-58.014
-56.574
-55.068
-53.508
-51.904
-50.266
-48.605
-46.932
-45.255
-43.585
-41.932
-40.307
-38.723
-37.192
-35.725
-34.333
-33.028
-31.818
-30.711
-29.715
-28.829
-28.056
-27.402
-26.87
-26.472
-26.217
-26.11
-26.152
-26.344
-26.678
-27.145
-27.729
-28.402
-29.138
-29.92
-30.726
-31.548
-32.376
-33.193
-33.983
-34.725
-35.389
-35.964
-36.443
-36.822
-37.125
-37.384
-37.644
-37.978
-38.448
-39.107
-40.024
-41.244
-42.817
-44.804
-47.226
-50.111
-53.532
-57.483
-61.895
-66.624
-71.35
-75.715
-79.458
-82.261
-83.784
-83.85
-82.395
-79.662
-76.36
-73.295
-71.101
-70.262
-71.229
-74.343
-79.69
-86.755
-93.378
-96.264
-92.762
-81.473
-63.931
-43.27
-20.856
4.082
36.52
82.031
142.722
217.508
298.3
373.864
432.921
463.708
458.157
411.95
325.099
201.39
50.453
-112.531
-270.952
-403.356
-493.015
-534.527
-529.924
-494.643
-449.022
-407.077
-377.405
-358.663
-341.955
-319.317
-286.387
-243.667
-196.665
-152.474
-115.476
-87.073
-66.464
-51.263
-39.951
-32.271
-27.736
-25.511
-24.475
-23.185
-20.812
-17.32
-12.811
-7.393
-1.393
4.726
10.343
14.65
17.265
18.277
17.867
16.345
14.087
11.411
8.735
6.543
5.098
4.485
4.731
5.748
7.468
9.855
12.801
16.18
19.892
23.833
27.918
32.076
36.195
40.167
43.92
47.394
50.565
53.433
55.991
58.249
60.238
61.99
63.548
64.95
66.227
67.419
68.57
69.73
70.956
72.293
73.773
75.422
77.255
79.28
81.506
83.931
86.544
89.334
92.295
95.417
98.696
102.124
105.686
109.367
113.15
117.017
120.954
124.944
128.967
133.006
137.041
141.057
145.035
148.956
152.799
156.541
160.159
163.631
166.934
170.046
172.944
175.608
178.017
180.154
182.001
183.544
184.768
185.66
186.209
186.406
186.243
185.713
184.813
183.541
181.895
179.879
177.495
174.75
171.651
168.207
164.43
160.333
155.93
151.24
146.279
141.068
135.628
129.981
124.152
118.163
112.04
105.808
99.494
93.122
86.717
80.306
73.913
67.561
61.274
55.076
48.986
43.027
37.218
31.577
26.121
20.866
15.826
11.014
6.441
2.117
-1.949
-5.753
-9.289
-12.554
-15.546
-18.268
-20.72
-22.907
-24.834
-26.509
-27.939
-29.134
-30.106
-30.865
-31.424
-31.798
-31.999
-32.042
-31.942
-31.715
-31.376
-30.939
-30.421
-29.836
-29.199
-28.525
-27.828
-27.121
-26.417
-25.729
-25.068
-24.446
-23.873
-23.359
-22.911
-22.538
-22.247
-22.042
-21.929
-21.911
-21.991
-22.17
-22.448
-22.825
-23.301
-23.873
-24.538
-25.294
-26.136
-27.059
-28.06
-29.133
-30.272
-31.471
-32.725
-34.028
-35.373
-36.755
-38.167
-39.604
-41.06
-42.529
-44.004
-45.481
-46.954
-48.418
-49.867
-51.296
-52.701
-54.078
-55.421
-56.728
-57.996
-59.22
-60.399
-61.53
-62.611
-63.64
-64.616
-65.538
-66.403
-67.211
-67.96
-68.65
-69.278
-69.845
-70.349
-70.79
-71.165
-71.475
-71.718
-71.892
-71.997
-72.032
-71.995
-71.885
-71.702
-71.443
-71.111
-70.703
-70.221
-69.665
-69.036
-68.336
-67.564
-66.724
-65.817
-64.846
-63.811
-62.718
-61.568
-60.365
-59.115
-57.824
-56.498
-55.144
-53.77
-52.385
-50.997
-49.615
-48.246
-46.898
-45.579
-44.293
-43.049
-41.853
-40.713
-39.639
-38.639
-37.723
-36.897
-36.167
-35.538
-35.014
-34.595
-34.277
-34.06
-33.946
-33.946
-34.068
-34.318
-34.696
-35.201
-35.825
-36.557
-37.38
-38.267
-39.188
-40.115
-41.023
-41.903
-42.75
-43.558
-44.314
-44.988
-45.554
-46.007
-46.344
-46.574
-46.723
-46.812
-46.891
-47.042
-47.33
-47.826
-48.611
-49.719
-51.178
-53.013
-55.207
-57.81
-60.924
-64.526
-68.503
-72.672
-76.698
-80.308
-83.346
-85.442
-86.104
-85.154
-82.646
-78.963
-74.931
-71.279
-68.467
-67.195
-68.456
-71.895
-75.915
-79.039
-78.989
-75.989
-73.303
-70.833
-66.243
-54.591
-27.842
16.442
75.366
143.753
214.845
283.7
344.761
390.508
410.548
394.222
338.805
247.672
128.957
-3.828
-139.675
-267.906
-374.138
-448.511
-486.816
-491.098
-473.268
-446.271
-416.832
-386.977
-353.96
-313.939
-267.744
-218.81
-171.177
-129.177
-94.955
-69.017
-51.21
-40.586
-35.949
-36.082
-39.577
-44.768
-50.011
-53.851
-55.445
-54.646
-51.645
-46.847
-40.794
-34.171
-27.805
-22.534
-18.767
-16.469
-15.448
-15.401
-16.03
-17.062
-18.095
-18.677
-18.559
-17.668
-16.029
-13.751
-10.91
-7.54
-3.737
0.365
4.644
8.976
13.272
17.496
21.607
25.558
29.303
32.796
36.021
38.987
41.71
44.203
46.479
48.553
50.451
52.218
53.899
55.546
57.209
58.925
60.725
62.636
64.681
66.879
69.239
71.762
74.444
77.283
80.28
83.433
86.741
90.195
93.785
97.498
101.322
105.242
109.244
113.311
117.43
121.584
125.759
129.939
134.11
138.253
142.351
146.382
150.326
154.16
157.864
161.415
164.791
167.971
170.937
173.668
176.147
178.357
180.284
181.913
183.231
184.228
184.894
185.221
185.205
184.841
184.129
183.068
181.662
179.916
177.835
175.429
172.707
169.682
166.367
162.777
158.928
154.839
150.529
146.018
141.328
136.481
131.5
126.409
121.23
115.988
110.707
105.41
100.119
94.857
89.647
84.509
79.463
74.529
69.725
65.068
60.573
56.254
52.125
48.196
44.477
40.976
37.699
34.652
31.838
29.259
26.916
24.807
22.931
21.285
19.862
18.657
17.664
16.874
16.278
15.867
15.631
15.56
15.642
15.866
16.222
16.696
17.278
17.955
18.717
19.551
20.448
21.396
22.386
23.409
24.454
25.514
26.582
27.65
28.712
29.762
30.796
31.809
32.798
33.759
34.691
35.592
36.461
37.298
38.102
38.874
39.615
40.325
41.005
41.658
42.283
42.883
43.459
44.011
44.541
45.05
45.539
46.007
46.455
46.883
47.29
47.676
48.039
48.379
48.693
48.979
49.236
49.459
49.648
49.797
49.905
49.968
49.981
49.943
49.849
49.696
49.48
49.197
48.845
48.42
47.919
47.341
46.682
45.943
45.121
44.218
43.233
42.168
41.024
39.805
38.514
37.155
35.731
34.248
32.711
31.126
29.501
27.84
26.153
24.447
22.729
21.007
19.29
17.585
15.9
14.242
12.618
11.034
9.498
8.016
6.593
5.233
3.943
2.726
1.585
0.524
-0.458
-1.36
-2.183
-2.931
-3.608
-4.22
-4.775
-5.279
-5.741
-6.169
-6.571
-6.954
-7.326
-7.693
-8.064
-8.446
-8.851
-9.288
-9.767
-10.296
-10.881
-11.525
-12.235
-13.012
-13.852
-14.755
-15.721
-16.758
-17.882
-19.109
-20.444
-21.892
-23.448
-25.108
-26.865
-28.703
-30.596
-32.516
-34.43
-36.322
-38.187
-40.019
-41.811
-43.536
-45.136
-46.578
-47.86
-48.993
-49.994
-50.876
-51.625
-52.265
-52.891
-53.571
-54.345
-55.245
-56.254
-57.387
-58.747
-60.463
-62.58
-65.157
-68.266
-71.654
-74.926
-77.851
-79.907
-81.175
-82.811
-84.487
-85.25
-83.765
-76.76
-65.389
-54.894
-50.241
-57.856
-77.328
-100.476
-120.8
-131.981
-132.618
-127.936
-117.833
-98.728
-66.496
-15.276
51.91
125.357
196.201
256.068
304.021
342.783
371.974
389.241
385.158
349.153
276.422
165.123
23.906
-129.786
-278.455
-401.148
-482.299
-519.31
-514.975
-480.486
-431.888
-379.24
-331.269
-292.748
-261.166
-233.959
-206.616
-175.265
-141.574
-108.91
-81.604
-62.827
-52.247
-47.921
-47.638
-49.62
-52.618
-55.627
-57.681
-58.122
-56.893
-54.242
-50.408
-45.759
-40.814
-36.184
-32.615
-30.475
-29.651
-29.921
-30.995
-32.605
-34.533
-36.439
-37.889
-38.636
-38.606
-37.81
-36.354
-34.31
-31.702
-28.615
-25.178
-21.513
-17.75
-13.986
-10.267
-6.635
-3.141
0.166
3.238
6.051
8.611
10.932
13.028
14.911
16.594
18.103
19.48
20.771
22.029
23.304
24.633
26.046
27.571
29.23
31.041
33.016
35.153
37.449
39.903
42.514
45.284
48.208
51.279
54.488
57.823
61.271
64.819
68.452
72.156
75.916
79.718
83.547
87.389
91.231
95.055
98.843
102.575
106.232
109.791
113.23
116.529
119.665
122.616
125.362
127.884
130.163
132.181
133.922
135.37
136.51
137.331
137.82
137.967
137.766
137.21
136.296
135.021
133.386
131.393
129.046
126.352
123.318
119.953
116.27
112.28
107.999
103.443
98.628
93.574
88.301
82.83
77.183
71.383
65.453
59.417
53.299
47.122
40.911
34.688
28.478
22.302
16.183
10.143
4.202
-1.621
-7.307
-12.838
-18.198
-23.373
-28.35
-33.117
-37.664
-41.98
-46.061
-49.898
-53.489
-56.83
-59.918
-62.755
-65.342
-67.68
-69.774
-71.628
-73.25
-74.644
-75.821
-76.787
-77.552
-78.127
-78.521
-78.745
-78.811
-78.729
-78.512
-78.172
-77.719
-77.166
-76.525
-75.806
-75.021
-74.18
-73.293
-72.37
-71.42
-70.453
-69.475
-68.496
-67.522
-66.558
-65.613
-64.689
-63.793
-62.927
-62.096
-61.302
-60.547
-59.835
-59.166
-58.542
-57.963
-57.432
-56.947
-56.51
-56.12
-55.778
-55.483
-55.235
-55.033
-54.878
-54.769
-54.706
-54.687
-54.713
-54.784
-54.899
-55.058
-55.26
-55.505
-55.793
-56.124
-56.498
-56.914
-57.373
-57.875
-58.419
-59.005
-59.634
-60.304
-61.015
-61.766
-62.556
-63.383
-64.246
-65.142
-66.069
-67.025
-68.005
-69.008
-70.027
-71.059
-72.098
-73.14
-74.178
-75.207
-76.22
-77.211
-78.173
-79.101
-79.987
-80.824
-81.606
-82.325
-82.975
-83.55
-84.041
-84.443
-84.751
-84.958
-85.059
-85.052
-84.931
-84.694
-84.338
-83.863
-83.268
-82.552
-81.718
-80.766
-79.7
-78.525
-77.247
-75.874
-74.416
-72.882
-71.283
-69.631
-67.938
-66.218
-64.482
-62.739
-61.001
-59.279
-57.586
-55.935
-54.338
-52.808
-51.357
-49.997
-48.738
-47.589
-46.555
-45.639
-44.841
-44.167
-43.621
-43.218
-42.967
-42.875
-42.947
-43.184
-43.581
-44.132
-44.821
-45.621
-46.506
-47.456
-48.448
-49.473
-50.517
-51.56
-52.58
-53.547
-54.423
-55.186
-55.82
-56.32
-56.698
-56.98
-57.198
-57.405
-57.66
-58.022
-58.551
-59.307
-60.343
-61.692
-63.411
-65.597
-68.315
-71.574
-75.255
-79.06
-82.638
-85.693
-87.881
-88.796
-88.141
-85.779
-81.958
-77.486
-73.361
-70.425
-69.465
-71.33
-76.484
-84.914
-95.992
-107.188
-115.54
-119.334
-116.07
-104.996
-85.861
-55.398
-13.529
39.536
103.521
173.265
246.607
321.041
390.714
449.911
488.355
494.525
461.066
385.937
273.504
134.49
-16.713
-165.125
-294.734
-392.658
-452.427
-474.508
-467.31
-442.641
-410.687
-376.718
-341.184
-302.326
-258.83
-212.461
-166.571
-124.716
-89.938
-63.173
-44.098
-31.88
-25.023
-22.127
-22.125
-23.663
-25.491
-26.649
-26.216
-23.884
-19.927
-14.696
-8.606
-2.231
3.917
9.3
13.302
15.759
16.857
16.831
16.009
14.697
13.132
11.657
10.667
10.363
10.809
11.997
13.827
16.239
19.205
22.633
26.399
30.38
34.444
38.492
42.471
46.334
50.029
53.509
56.726
59.658
62.309
64.692
66.821
68.709
70.372
71.841
73.159
74.382
75.567
76.772
78.043
79.414
80.913
82.564
84.388
86.404
88.622
91.044
93.67
96.497
99.524
102.744
106.142
109.688
113.34
117.056
120.805
124.57
128.346
132.124
135.897
139.654
143.388
147.11
150.832
154.557
158.282
162.004
165.732
169.501
173.372
177.388
181.567
185.896
190.343
194.876
199.453
204.018
208.497
212.784
216.784
220.424
223.649
226.408
228.629
230.213
231.036
231
230.049
228.159
225.329
221.563
216.89
211.369
205.103
198.225
190.855
183.077
174.962
166.574
158
149.349
140.744
132.282
124.034
116.058
108.4
101.108
94.203
87.68
81.494
75.583
69.903
64.436
59.177
54.126
49.27
44.591
40.067
35.696
31.479
27.414
23.499
19.727
16.102
12.643
9.384
6.364
3.606
1.121
-1.086
-3.015
-4.668
-6.047
-7.163
-8.035
-8.68
-9.111
-9.341
-9.379
-9.24
-8.944
-8.512
-7.965
-7.324
-6.604
-5.822
-4.993
-4.133
-3.252
-2.36
-1.463
-0.571
0.308
1.165
1.99
2.776
3.515
4.201
4.826
5.385
5.873
6.289
6.63
6.895
7.083
7.195
7.231
7.193
7.084
6.905
6.661
6.354
5.988
5.568
5.096
4.578
4.016
3.412
2.772
2.097
1.39
0.652
-0.113
-0.904
-1.719
-2.553
-3.407
-4.279
-5.165
-6.066
-6.979
-7.903
-8.837
-9.78
-10.732
-11.691
-12.657
-13.63
-14.608
-15.594
-16.587
-17.587
-18.596
-19.614
-20.642
-21.679
-22.726
-23.781
-24.842
-25.907
-26.972
-28.034
-29.087
-30.127
-31.149
-32.151
-33.129
-34.079
-34.997
-35.878
-36.719
-37.516
-38.263
-38.953
-39.576
-40.125
-40.594
-40.977
-41.27
-41.468
-41.564
-41.558
-41.448
-41.231
-40.904
-40.459
-39.882
-39.167
-38.319
-37.347
-36.268
-35.098
-33.849
-32.541
-31.202
-29.849
-28.494
-27.135
-25.75
-24.334
-22.887
-21.424
-19.974
-18.55
-17.148
-15.763
-14.385
-13.002
-11.609
-10.181
-8.673
-7.065
-5.362
-3.6
-1.861
-0.203
1.337
2.734
3.982
5.06
5.93
6.565
6.953
7.079
6.942
6.51
5.712
4.518
2.934
1.013
-1.143
-3.45
-5.854
-8.311
-10.786
-13.238
-15.62
-17.919
-20.17
-22.416
-24.717
-27.086
-29.492
-31.931
-34.449
-37.131
-40.092
-43.421
-47.148
-51.302
-55.988
-61.257
-67.048
-73.158
-79.193
-84.727
-89.462
-93.107
-95.251
-95.644
-94.307
-91.577
-88.27
-85.188
-82.935
-82.211
-83.803
-88.308
-94.904
-101.294
-105.031
-103.58
-97.271
-89.146
-78.964
-65.342
-43.962
-5.879
51.294
126.323
215.014
304.892
386.115
448.779
482.543
484.107
449.806
380.833
282.115
156.319
13.919
-133.436
-271.649
-380.703
-451.978
-484.857
-486.436
-473.961
-457.057
-438.274
-416.449
-385.286
-343.601
-295.157
-244.234
-196.094
-153.911
-118.588
-90.831
-70.57
-57.159
-49.782
-47.252
-48.19
-51.127
-54.508
-56.814
-57.162
-55.36
-51.563
-46.206
-39.831
-33.06
-26.723
-21.727
-18.525
-17.118
-17.287
-18.624
-20.764
-23.392
-26.052
-28.249
-29.674
-30.199
-29.826
-28.661
-26.775
-24.208
-21.051
-17.422
-13.448
-9.254
-4.946
-0.619
3.651
7.788
11.718
15.384
18.753
21.81
24.566
27.04
29.246
31.205
32.946
34.499
35.909
37.226
38.499
39.784
41.125
42.556
44.11
45.811
47.673
49.705
51.907
54.274
56.803
59.493
62.339
65.341
68.49
71.778
75.194
78.726
82.36
86.082
89.881
93.74
97.646
101.585
105.542
109.501
113.448
117.362
121.222
125.008
128.697
132.266
135.693
138.955
142.031
144.899
147.541
149.936
152.069
153.922
155.481
156.731
157.661
158.259
158.518
158.428
157.986
157.187
156.029
154.513
152.642
150.419
147.851
144.945
141.712
138.162
134.31
130.171
125.762
121.101
116.207
111.103
105.811
100.353
94.755
89.039
83.232
77.357
71.439
65.502
59.571
53.669
47.818
42.04
36.357
30.788
25.353
20.07
14.956
10.025
5.292
0.768
-3.534
-7.607
-11.442
-15.033
-18.375
-21.466
-24.305
-26.891
-29.226
-31.314
-33.159
-34.768
-36.148
-37.308
-38.257
-39.005
-39.564
-39.945
-40.161
-40.224
-40.147
-39.944
-39.627
-39.21
-38.707
-38.129
-37.491
-36.804
-36.08
-35.33
-34.567
-33.798
-33.035
-32.285
-31.556
-30.856
-30.191
-29.567
-28.987
-28.456
-27.977
-27.551
-27.18
-26.863
-26.602
-26.394
-26.238
-26.133
-26.075
-26.061
-26.089
-26.154
-26.254
-26.382
-26.536
-26.711
-26.902
-27.105
-27.315
-27.527
-27.738
-27.943
-28.138
-28.32
-28.487
-28.633
-28.758
-28.859
-28.934
-28.982
-29.001
-28.991
-28.951
-28.882
-28.784
-28.658
-28.505
-28.326
-28.123
-27.897
-27.649
-27.382
-27.096
-26.794
-26.477
-26.146
-25.804
-25.453
-25.094
-24.728
-24.357
-23.982
-23.605
-23.226
-22.844
-22.461
-22.076
-21.687
-21.294
-20.897
-20.492
-20.079
-19.655
-19.218
-18.765
-18.293
-17.798
-17.277
-16.727
-16.144
-15.525
-14.867
-14.167
-13.423
-12.633
-11.796
-10.91
-9.974
-8.987
-7.951
-6.863
-5.727
-4.542
-3.311
-2.036
-0.721
0.63
2.009
3.41
4.826
6.249
7.669
9.077
10.463
11.819
13.138
14.41
15.628
16.781
17.86
18.854
19.755
20.552
21.236
21.801
22.24
22.551
22.734
22.791
22.72
22.519
22.177
21.687
21.045
20.248
19.295
18.196
16.961
15.609
14.173
12.681
11.157
9.627
8.102
6.597
5.133
3.73
2.415
1.222
0.172
-0.722
-1.45
-2.036
-2.517
-2.948
-3.415
-3.988
-4.731
-5.721
-7.026
-8.699
-10.798
-13.342
-16.349
-19.923
-24.105
-28.813
-33.88
-38.956
-43.646
-47.685
-50.741
-52.314
-52.11
-50.13
-46.69
-42.647
-38.846
-35.896
-34.56
-35.715
-40.022
-46.696
-53.429
-57.64
-56.529
-50.365
-42.346
-32.356
-19.442
0.463
36.959
93.015
168.268
260.069
356.332
446.479
519.501
561.764
565.334
524.667
439.573
316.246
164.386
-1.648
-166.657
-314.206
-428.453
-500.391
-527.138
-512.896
-470.621
-414.121
-355.75
-307.175
-270.971
-244.645
-224.018
-200.502
-171.018
-137.619
-103.392
-74.419
-53.744
-40.423
-32.777
-28.254
-25.124
-22.903
-21.223
-19.581
-17.335
-14.191
-10.223
-5.593
-0.661
4.225
8.809
12.624
15.181
16.366
16.274
15.118
13.257
10.983
8.554
6.316
4.606
3.609
3.405
3.982
5.257
7.171
9.661
12.632
15.978
19.592
23.376
27.245
31.112
34.896
38.522
41.927
45.075
47.947
50.537
52.854
54.919
56.756
58.401
59.892
61.26
62.546
63.791
65.04
66.346
67.75
69.283
70.971
72.831
74.872
77.103
79.523
82.121
84.891
87.822
90.907
94.139
97.507
100.999
104.599
108.289
112.053
115.874
119.737
123.622
127.512
131.389
135.235
139.034
142.765
146.408
149.942
153.343
156.589
159.658
162.527
165.175
167.581
169.725
171.589
173.158
174.416
175.349
175.946
176.195
176.089
175.622
174.787
173.583
172.008
170.063
167.751
165.077
162.047
158.67
154.955
150.914
146.561
141.91
136.977
131.78
126.339
120.673
114.804
108.754
102.546
96.204
89.751
83.211
76.608
69.966
63.308
56.657
50.034
43.462
36.959
30.546
24.241
18.061
12.022
6.139
0.425
-5.107
-10.446
-15.584
-20.513
-25.224
-29.713
-33.976
-38.01
-41.814
-45.388
-48.733
-51.852
-54.748
-57.427
-59.895
-62.158
-64.224
-66.102
-67.802
-69.331
-70.701
-71.922
-73.004
-73.958
-74.794
-75.523
-76.155
-76.7
-77.169
-77.57
-77.913
-78.206
-78.459
-78.679
-78.873
-79.048
-79.212
-79.369
-79.526
-79.688
-79.859
-80.042
-80.242
-80.46
-80.699
-80.961
-81.246
-81.555
-81.889
-82.248
-82.632
-83.04
-83.471
-83.925
-84.4
-84.897
-85.413
-85.949
-86.503
-87.074
-87.662
-88.267
-88.888
-89.525
-90.178
-90.846
-91.53
-92.231
-92.947
-93.679
-94.427
-95.191
-95.973
-96.772
-97.588
-98.423
-99.275
-100.147
-101.036
-101.945
-102.872
-103.816
-104.779
-105.758
-106.753
-107.764
-108.787
-109.823
-110.867
-111.919
-112.974
-114.029
-115.079
-116.121
-117.149
-118.159
-119.146
-120.103
-121.026
-121.909
-122.747
-123.533
-124.261
-124.926
-125.522
-126.043
-126.482
-126.836
-127.099
-127.268
-127.337
-127.305
-127.169
-126.926
-126.574
-126.113
-125.542
-124.861
-124.07
-123.171
-122.167
-121.061
-119.86
-118.57
-117.199
-115.756
-114.25
-112.692
-111.09
-109.454
-107.794
-106.117
-104.43
-102.743
-101.064
-99.404
-97.773
-96.183
-94.643
-93.159
-91.74
-90.392
-89.118
-87.918
-86.791
-85.738
-84.763
-83.881
-83.105
-82.44
-81.891
-81.456
-81.128
-80.901
-80.76
-80.678
-80.628
-80.583
-80.521
-80.436
-80.323
-80.176
-79.977
-79.689
-79.284
-78.75
-78.087
-77.31
-76.438
-75.492
-74.513
-73.567
-72.729
-72.087
-71.715
-71.648
-71.918
-72.523
-73.487
-74.939
-76.919
-79.333
-82.027
-84.697
-87.039
-88.906
-90.042
-89.949
-88.369
-85.375
-81.215
-76.636
-72.514
-69.419
-68.056
-69.512
-73.721
-79.067
-84.068
-86.653
-86.172
-85.454
-85.53
-84.048
-76.795
-56.091
-15.6
43.94
119.132
204.625
291.803
373.629
441.059
481.891
485.923
446.144
362.432
240.87
93.279
-63.975
-215.509
-344.024
-435.527
-485.877
-495.267
-472.46
-432.111
-384.342
-338.918
-301.414
-269.795
-241.7
-212.358
-177.592
-138.804
-99.472
-64.739
-38.647
-21.623
-11.992
-7.071
-4.958
-4.534
-4.903
-5.299
-4.689
-2.463
1.294
6.306
12.213
18.498
24.703
30.278
34.56
37.331
38.728
38.997
38.482
37.499
36.307
35.237
34.664
34.789
35.668
37.285
39.545
42.375
45.733
49.529
53.645
57.962
62.362
66.738
71.03
75.183
79.134
82.843
86.275
89.411
92.266
94.859
97.208
99.335
101.268
103.034
104.678
106.247
107.793
109.372
111.029
112.797
114.706
116.78
119.033
121.478
124.115
126.937
129.94
133.122
136.477
140.003
143.689
147.524
151.494
155.582
159.772
164.046
168.387
172.777
177.197
181.627
186.049
190.444
194.792
199.068
203.25
207.31
211.224
214.965
218.508
221.826
224.896
227.693
230.195
232.382
234.234
235.734
236.865
237.614
237.968
237.917
237.454
236.572
235.268
233.541
231.392
228.824
225.844
222.459
218.68
214.518
209.988
205.107
199.892
194.363
188.543
182.455
176.123
169.574
162.835
155.933
148.898
141.759
134.545
127.284
120.006
112.739
105.509
98.344
91.269
84.308
77.485
70.82
64.334
58.045
51.97
46.123
40.519
35.168
30.08
25.263
20.723
16.464
12.488
8.795
5.386
2.256
-0.597
-3.181
-5.503
-7.571
-9.396
-10.988
-12.359
-13.523
-14.493
-15.282
-15.906
-16.379
-16.715
-16.929
-17.036
-17.05
-16.983
-16.851
-16.664
-16.435
-16.175
-15.896
-15.606
-15.315
-15.03
-14.76
-14.511
-14.288
-14.096
-13.941
-13.824
-13.75
-13.719
-13.734
-13.794
-13.9
-14.052
-14.248
-14.487
-14.767
-15.086
-15.442
-15.831
-16.253
-16.703
-17.18
-17.681
-18.204
-18.747
-19.308
-19.885
-20.478
-21.086
-21.707
-22.342
-22.99
-23.652
-24.328
-25.018
-25.723
-26.444
-27.183
-27.939
-28.715
-29.511
-30.328
-31.167
-32.029
-32.915
-33.824
-34.758
-35.717
-36.7
-37.708
-38.739
-39.794
-40.871
-41.968
-43.083
-44.212
-45.354
-46.504
-47.659
-48.813
-49.962
-51.102
-52.226
-53.33
-54.407
-55.452
-56.458
-57.42
-58.33
-59.183
-59.973
-60.694
-61.341
-61.908
-62.392
-62.789
-63.095
-63.308
-63.424
-63.443
-63.362
-63.181
-62.9
-62.52
-62.042
-61.468
-60.802
-60.05
-59.217
-58.311
-57.34
-56.311
-55.236
-54.122
-52.98
-51.818
-50.644
-49.466
-48.293
-47.134
-46
-44.9
-43.843
-42.84
-41.898
-41.024
-40.224
-39.5
-38.853
-38.284
-37.793
-37.384
-37.069
-36.857
-36.754
-36.763
-36.885
-37.113
-37.442
-37.857
-38.334
-38.852
-39.388
-39.92
-40.44
-40.937
-41.4
-41.819
-42.163
-42.404
-42.526
-42.522
-42.398
-42.175
-41.871
-41.521
-41.178
-40.908
-40.789
-40.894
-41.283
-42.015
-43.115
-44.617
-46.611
-49.139
-52.17
-55.583
-59.097
-62.386
-65.228
-67.376
-68.485
-68.328
-66.805
-64.108
-60.923
-58.091
-56.261
-55.938
-57.699
-61.975
-68.743
-77.454
-86.088
-91.393
-91.414
-85.1
-72.358
-55.059
-32.4
-1.889
38.022
89.807
152.213
220.516
290.095
353.886
403.997
433.596
434.411
399.569
327.622
219.415
82.006
-69.434
-219.459
-349.213
-442.028
-493.291
-503.481
-481.387
-442.379
-396.605
-353.396
-318.241
-288.898
-262.791
-235.092
-201.587
-163.571
-124.502
-89.616
-63.018
-45.303
-35.042
-29.705
-27.537
-27.503
-28.673
-30.21
-30.972
-30.224
-27.941
-24.298
-19.588
-14.31
-8.938
-4.085
-0.503
1.523
2.068
1.325
-0.343
-2.591
-5.121
-7.543
-9.442
-10.599
-10.931
-10.437
-9.206
-7.3
-4.769
-1.709
1.774
5.574
9.586
13.724
17.899
22.027
26.03
29.842
33.421
36.745
39.806
42.609
45.169
47.507
49.65
51.628
53.47
55.211
56.892
58.557
60.259
62.038
63.926
65.946
68.116
70.444
72.938
75.594
78.402
81.355
84.445
87.664
91.007
94.464
98.024
101.674
105.395
109.173
112.995
116.844
120.706
124.564
128.403
132.207
135.964
139.656
143.265
146.771
150.154
153.392
156.468
159.359
162.045
164.507
166.728
168.689
170.377
171.777
172.876
173.662
174.124
174.255
174.047
173.495
172.594
171.343
169.74
167.787
165.488
162.847
159.871
156.567
152.945
149.017
144.794
140.292
135.527
130.515
125.274
119.826
114.19
108.388
102.443
96.378
90.216
83.981
77.697
71.385
65.07
58.774
52.518
46.324
40.211
34.2
28.309
22.555
16.956
11.525
6.279
1.228
-3.614
-8.238
-12.635
-16.797
-20.717
-24.391
-27.816
-30.988
-33.908
-36.575
-38.991
-41.16
-43.086
-44.775
-46.232
-47.466
-48.486
-49.3
-49.917
-50.35
-50.607
-50.7
-50.641
-50.441
-50.11
-49.661
-49.106
-48.454
-47.718
-46.908
-46.035
-45.109
-44.139
-43.136
-42.108
-41.063
-40.01
-38.957
-37.91
-36.876
-35.862
-34.874
-33.915
-32.991
-32.106
-31.262
-30.463
-29.711
-29.008
-28.355
-27.753
-27.203
-26.705
-26.259
-25.866
-25.525
-25.236
-24.999
-24.812
-24.676
-24.589
-24.55
-24.559
-24.615
-24.716
-24.862
-25.051
-25.283
-25.555
-25.868
-26.218
-26.604
-27.024
-27.476
-27.957
-28.464
-28.995
-29.548
-30.119
-30.706
-31.305
-31.914
-32.529
-33.147
-33.763
-34.374
-34.974
-35.561
-36.128
-36.67
-37.184
-37.664
-38.105
-38.502
-38.85
-39.143
-39.377
-39.547
-39.646
-39.67
-39.615
-39.475
-39.248
-38.93
-38.517
-38.009
-37.405
-36.703
-35.903
-35.006
-34.013
-32.925
-31.745
-30.476
-29.121
-27.685
-26.174
-24.594
-22.956
-21.267
-19.539
-17.78
-16.001
-14.215
-12.432
-10.661
-8.911
-7.19
-5.51
-3.88
-2.313
-0.818
0.593
1.911
3.127
4.232
5.221
6.092
6.844
7.478
7.992
8.383
8.641
8.759
8.735
8.568
8.262
7.825
7.265
6.604
5.866
5.074
4.252
3.421
2.592
1.78
1.001
0.27
-0.382
-0.928
-1.351
-1.643
-1.812
-1.88
-1.865
-1.796
-1.717
-1.678
-1.743
-1.975
-2.43
-3.158
-4.187
-5.566
-7.39
-9.705
-12.478
-15.553
-18.623
-21.371
-23.559
-24.906
-25.068
-23.81
-21.066
-17.139
-12.755
-8.709
-5.675
-4.275
-5.103
-8.507
-14.471
-22.26
-30.28
-36.608
-39.373
-36.593
-26.151
-6.277
24.569
66.026
114.94
167.953
221.697
274.613
328.829
384.281
436.273
476.668
492.269
471.55
412.065
316.38
192.212
53.342
-87.923
-217.863
-319.56
-384.105
-410.866
-405.055
-380.273
-347.643
-309.276
-267.113
-222.219
-175.839
-135.609
-105.029
-81.74
-64.114
-47.622
-30.558
-16.309
-6.101
-0.557
0.573
0.14
-0.206
0.004
1.414
3.849
6.888
10.462
14.318
17.994
21.212
23.668
24.912
24.875
23.758
21.748
19.14
16.212
13.139
10.197
7.741
5.955
4.914
4.629
5.017
6.025
7.635
9.768
12.302
15.115
18.071
21.062
24.035
26.941
29.73
32.352
34.76
36.933
38.876
40.603
42.128
43.462
44.62
45.628
46.53
47.374
48.213
49.099
50.068
51.151
52.373
53.753
55.309
57.046
58.964
61.054
63.314
65.742
68.335
71.088
73.994
77.039
80.211
83.495
86.878
90.343
93.876
97.459
101.078
104.717
108.361
111.993
115.598
119.155
122.644
126.044
129.332
132.487
135.488
138.31
140.935
143.341
145.51
147.424
149.066
150.422
151.477
152.22
152.638
152.723
152.466
151.86
150.903
149.59
147.92
145.895
143.517
140.791
137.724
134.324
130.602
126.569
122.239
117.626
112.748
107.622
102.268
96.705
90.956
85.043
78.989
72.818
66.554
60.22
53.841
47.44
41.041
34.665
28.335
22.072
15.896
9.828
3.884
-1.916
-7.557
-13.022
-18.298
-23.373
-28.235
-32.875
-37.284
-41.455
-45.385
-49.068
-52.503
-55.689
-58.627
-61.318
-63.767
-65.977
-67.956
-69.71
-71.248
-72.578
-73.712
-74.66
-75.433
-76.043
-76.502
-76.821
-77.014
-77.092
-77.067
-76.953
-76.759
-76.5
-76.185
-75.826
-75.433
-75.016
-74.585
-74.148
-73.713
-73.287
-72.877
-72.488
-72.126
-71.794
-71.496
-71.236
-71.014
-70.832
-70.691
-70.589
-70.526
-70.5
-70.509
-70.55
-70.621
-70.717
-70.836
-70.975
-71.129
-71.295
-71.47
-71.65
-71.831
-72.01
-72.184
-72.351
-72.508
-72.652
-72.783
-72.897
-72.995
-73.076
-73.138
-73.182
-73.208
-73.217
-73.21
-73.188
-73.152
-73.104
-73.048
-72.985
-72.918
-72.851
-72.785
-72.725
-72.674
-72.634
-72.609
-72.602
-72.614
-72.647
-72.705
-72.787
-72.895
-73.029
-73.189
-73.372
-73.58
-73.808
-74.056
-74.321
-74.599
-74.886
-75.18
-75.474
-75.765
-76.047
-76.314
-76.561
-76.782
-76.97
-77.119
-77.224
-77.277
-77.274
-77.209
-77.075
-76.869
-76.584
-76.217
-75.764
-75.222
-74.589
-73.863
-73.045
-72.136
-71.139
-70.059
-68.9
-67.668
-66.37
-65.014
-63.607
-62.157
-60.671
-59.157
-57.623
-56.079
-54.535
-53.003
-51.494
-50.018
-48.589
-47.217
-45.913
-44.683
-43.53
-42.46
-41.478
-40.591
-39.813
-39.152
-38.617
-38.212
-37.944
-37.809
-37.801
-37.901
-38.082
-38.317
-38.587
-38.874
-39.169
-39.459
-39.731
-39.966
-40.145
-40.251
-40.268
-40.179
-39.973
-39.658
-39.269
-38.866
-38.535
-38.341
-38.33
-38.547
-39.045
-39.874
-41.079
-42.687
-44.683
-47.085
-49.993
-53.441
-57.345
-61.51
-65.556
-69.091
-71.851
-73.494
-73.531
-71.7
-68.051
-62.939
-57.198
-51.768
-47.328
-44.657
-44.832
-47.645
-51.401
-54.515
-54.686
-51.994
-49.818
-48.264
-44.728
-33.032
-3.298
48.186
118.649
201.428
286.404
366.598
437.357
492.125
523.878
524.429
487.061
411.771
301.88
164.813
13.748
-137.384
-270.03
-366.297
-419.807
-432.462
-417.123
-392.042
-366.35
-342.581
-317.845
-285.617
-245.248
-200.273
-154.472
-112.257
-76.063
-46.212
-23.027
-6.678
3.363
7.751
6.846
1.134
-8.743
-22.065
-37.412
-53.049
-67.871
-80.969
-91.561
-99.151
-103.105
-103.083
-99.647
-93.773
-86.458
-78.823
-71.553
-65.05
-59.934
-56.539
-54.728
-54.173
-54.276
-54.29
-53.862
-52.844
-51.022
-48.39
-45.019
-40.985
-36.547
-32.018
-27.547
-23.213
-19.081
-15.123
-11.339
-7.752
-4.327
-1.029
2.166
5.29
8.368
11.42
14.47
17.542
20.654
23.823
27.062
30.377
33.771
37.238
40.78
44.402
48.112
51.921
55.833
59.849
63.966
68.18
72.485
76.876
81.344
85.876
90.464
95.097
99.769
104.475
109.205
113.946
118.683
123.401
128.082
132.71
137.264
141.724
146.069
150.279
154.334
158.215
161.903
165.378
168.62
171.611
174.332
176.765
178.894
180.703
182.179
183.308
184.081
184.487
184.52
184.175
183.447
182.336
180.841
178.965
176.711
174.084
171.093
167.748
164.058
160.038
155.703
151.07
146.156
140.982
135.569
129.938
124.114
118.118
111.977
105.713
99.354
92.923
86.448
79.951
73.46
66.997
60.588
54.254
48.017
41.898
35.918
30.094
24.444
18.983
13.728
8.69
3.882
-0.686
-5.005
-9.068
-12.868
-16.403
-19.669
-22.664
-25.391
-27.85
-30.045
-31.981
-33.662
-35.097
-36.292
-37.257
-38.002
-38.537
-38.873
-39.022
-38.996
-38.807
-38.468
-37.991
-37.389
-36.674
-35.858
-34.954
-33.974
-32.93
-31.833
-30.694
-29.525
-28.336
-27.137
-25.938
-24.748
-23.574
-22.426
-21.31
-20.233
-19.202
-18.221
-17.297
-16.433
-15.633
-14.901
-14.239
-13.649
-13.133
-12.693
-12.33
-12.044
-11.835
-11.706
-11.654
-11.681
-11.785
-11.968
-12.227
-12.562
-12.972
-13.455
-14.01
-14.636
-15.329
-16.088
-16.911
-17.795
-18.737
-19.736
-20.787
-21.888
-23.035
-24.225
-25.455
-26.72
-28.017
-29.342
-30.691
-32.061
-33.447
-34.845
-36.25
-37.659
-39.065
-40.465
-41.853
-43.222
-44.568
-45.883
-47.163
-48.401
-49.591
-50.728
-51.804
-52.816
-53.757
-54.62
-55.402
-56.095
-56.696
-57.199
-57.601
-57.896
-58.083
-58.158
-58.118
-57.963
-57.692
-57.303
-56.797
-56.174
-55.436
-54.584
-53.621
-52.55
-51.375
-50.102
-48.738
-47.293
-45.775
-44.194
-42.56
-40.887
-39.184
-37.467
-35.744
-34.026
-32.323
-30.648
-29.012
-27.429
-25.909
-24.464
-23.105
-21.845
-20.692
-19.655
-18.739
-17.943
-17.271
-16.726
-16.314
-16.047
-15.934
-15.979
-16.189
-16.566
-17.109
-17.812
-18.662
-19.635
-20.708
-21.863
-23.083
-24.355
-25.663
-26.986
-28.302
-29.587
-30.814
-31.958
-32.998
-33.929
-34.758
-35.509
-36.219
-36.934
-37.701
-38.58
-39.638
-40.949
-42.579
-44.565
-46.955
-49.815
-53.195
-57.121
-61.491
-66.038
-70.475
-74.537
-77.952
-80.433
-81.685
-81.489
-80.041
-77.974
-76.015
-74.825
-75.024
-77.239
-82.172
-90.473
-100.923
-110.506
-116.57
-116.378
-110.582
-103.412
-95.145
-84.326
-65.801
-28.4
31.844
114.045
213.695
316.848
412.16
489.096
536.046
546.578
514.272
437.206
318.471
165.651
-4.786
-174.308
-321.287
-426.755
-485.536
-501.074
-486.885
-460.938
-431.755
-401.872
-368.936
-327.469
-278.251
-225.884
-175.352
-132.317
-99.293
-76.017
-61.608
-54.314
-52.144
-53.415
-56.43
-59.386
-60.835
-59.791
-55.883
-49.44
-41.15
-31.793
-22.159
-13.045
-5.214
0.668
4.316
5.873
5.682
4.211
1.916
-0.837
-3.654
-6.114
-7.959
-9.066
-9.397
-9.017
-7.972
-6.276
-3.981
-1.161
2.11
5.738
9.628
13.691
17.818
21.919
25.926
29.764
33.39
36.775
39.904
42.785
45.434
47.866
50.1
52.166
54.092
55.921
57.702
59.483
61.319
63.253
65.319
67.546
69.953
72.55
75.345
78.336
81.513
84.872
88.407
92.111
95.979
99.998
104.156
108.438
112.827
117.304
121.851
126.452
131.088
135.741
140.393
145.025
149.62
154.159
158.619
162.979
167.213
171.299
175.213
178.933
182.434
185.695
188.696
191.417
193.842
195.953
197.735
199.177
200.265
200.991
201.346
201.325
200.924
200.141
198.976
197.43
195.508
193.215
190.56
187.551
184.2
180.519
176.524
172.229
167.654
162.817
157.738
152.439
146.943
141.273
135.453
129.508
123.462
117.341
111.168
104.968
98.765
92.583
86.442
80.366
74.375
68.488
62.725
57.101
51.633
46.336
41.223
36.306
31.594
27.098
22.825
18.781
14.971
11.398
8.064
4.969
2.112
-0.508
-2.896
-5.057
-6.996
-8.721
-10.241
-11.563
-12.698
-13.656
-14.448
-15.086
-15.581
-15.946
-16.193
-16.335
-16.382
-16.348
-16.244
-16.081
-15.871
-15.624
-15.351
-15.06
-14.762
-14.464
-14.175
-13.902
-13.651
-13.428
-13.239
-13.088
-12.979
-12.915
-12.898
-12.93
-13.012
-13.143
-13.325
-13.555
-13.833
-14.156
-14.523
-14.93
-15.374
-15.852
-16.361
-16.896
-17.454
-18.031
-18.622
-19.225
-19.835
-20.45
-21.064
-21.676
-22.283
-22.882
-23.47
-24.047
-24.609
-25.157
-25.688
-26.202
-26.699
-27.179
-27.642
-28.089
-28.52
-28.938
-29.344
-29.739
-30.125
-30.506
-30.882
-31.256
-31.63
-32.006
-32.387
-32.774
-33.17
-33.577
-33.996
-34.429
-34.877
-35.339
-35.817
-36.309
-36.814
-37.332
-37.86
-38.397
-38.939
-39.483
-40.027
-40.566
-41.096
-41.612
-42.11
-42.584
-43.028
-43.436
-43.804
-44.123
-44.39
-44.597
-44.74
-44.814
-44.814
-44.736
-44.575
-44.328
-43.992
-43.565
-43.044
-42.429
-41.72
-40.917
-40.023
-39.044
-37.983
-36.848
-35.644
-34.38
-33.065
-31.708
-30.316
-28.896
-27.458
-26.01
-24.563
-23.128
-21.716
-20.336
-19.001
-17.719
-16.502
-15.356
-14.289
-13.301
-12.396
-11.579
-10.857
-10.244
-9.751
-9.385
-9.15
-9.051
-9.085
-9.251
-9.536
-9.921
-10.385
-10.914
-11.492
-12.113
-12.767
-13.435
-14.097
-14.726
-15.292
-15.777
-16.171
-16.47
-16.686
-16.844
-16.975
-17.13
-17.366
-17.736
-18.3
-19.121
-20.246
-21.711
-23.571
-25.899
-28.745
-32.112
-35.867
-39.74
-43.46
-46.785
-49.459
-51.188
-51.694
-50.829
-48.85
-46.427
-44.272
-42.96
-43.022
-45
-49.451
-56.883
-66.163
-74.523
-79.532
-78.699
-72.43
-64.349
-54.888
-43.11
-24.883
9.272
62.86
135.429
223.244
314.265
398.844
467.705
510.262
520.093
490.36
418.28
306.685
163.172
2.553
-158.363
-301.055
-409.865
-478.636
-507.871
-506.038
-485.436
-453.365
-414.996
-373.79
-330.287
-287.891
-249.009
-211.926
-176.082
-140.438
-105.353
-74.703
-50.906
-34.745
-25.494
-20.899
-19.47
-20.075
-21.732
-23.669
-24.813
-24.63
-23.232
-20.681
-17.193
-13.199
-9.023
-5.212
-2.43
-0.831
-0.271
-0.577
-1.431
-2.534
-3.672
-4.491
-4.608
-3.862
-2.206
0.322
3.583
7.482
11.94
16.812
21.936
27.155
32.323
37.353
42.197
46.796
51.101
55.071
58.676
61.917
64.814
67.379
69.634
71.607
73.323
74.83
76.18
77.43
78.641
79.859
81.119
82.452
83.884
85.432
87.113
88.93
90.879
92.963
95.184
97.542
100.04
102.673
105.436
108.322
111.319
114.418
117.609
120.88
124.221
127.62
131.064
134.541
138.04
141.544
145.038
148.5
151.911
155.249
158.491
161.614
164.594
167.409
170.035
172.45
174.635
176.569
178.232
179.607
180.677
181.425
181.839
181.906
181.615
180.957
179.927
178.519
176.731
174.563
172.018
169.098
165.81
162.163
158.166
153.831
149.172
144.206
138.95
133.422
127.646
121.642
115.435
109.05
102.512
95.849
89.088
82.254
75.376
68.48
61.593
54.741
47.951
41.246
34.65
28.188
21.88
15.747
9.808
4.08
-1.421
-6.681
-11.687
-16.429
-20.898
-25.086
-28.988
-32.601
-35.922
-38.951
-41.69
-44.142
-46.31
-48.202
-49.826
-51.189
-52.303
-53.179
-53.829
-54.266
-54.505
-54.559
-54.443
-54.173
-53.765
-53.233
-52.594
-51.863
-51.056
-50.187
-49.271
-48.321
-47.352
-46.376
-45.404
-44.447
-43.517
-42.623
-41.772
-40.975
-40.236
-39.563
-38.961
-38.435
-37.988
-37.623
-37.343
-37.149
-37.041
-37.021
-37.087
-37.239
-37.475
-37.794
-38.193
-38.67
-39.222
-39.847
-40.54
-41.3
-42.122
-43.003
-43.941
-44.931
-45.971
-47.057
-48.188
-49.36
-50.571
-51.818
-53.1
-54.414
-55.758
-57.13
-58.53
-59.953
-61.4
-62.868
-64.354
-65.858
-67.376
-68.907
-70.448
-71.996
-73.548
-75.103
-76.655
-78.202
-79.739
-81.262
-82.767
-84.248
-85.7
-87.117
-88.494
-89.823
-91.1
-92.317
-93.468
-94.545
-95.543
-96.453
-97.268
-97.983
-98.589
-99.08
-99.449
-99.692
-99.801
-99.774
-99.606
-99.294
-98.835
-98.227
-97.47
-96.564
-95.509
-94.307
-92.962
-91.477
-89.858
-88.111
-86.245
-84.27
-82.197
-80.037
-77.803
-75.509
-73.169
-70.798
-68.408
-66.013
-63.626
-61.263
-58.937
-56.664
-54.459
-52.337
-50.314
-48.403
-46.616
-44.964
-43.455
-42.093
-40.882
-39.827
-38.933
-38.212
-37.674
-37.323
-37.165
-37.199
-37.416
-37.81
-38.363
-39.048
-39.841
-40.718
-41.656
-42.643
-43.668
-44.718
-45.781
-46.826
-47.822
-48.752
-49.604
-50.373
-51.077
-51.736
-52.385
-53.093
-53.918
-54.917
-56.158
-57.689
-59.542
-61.738
-64.266
-67.132
-70.406
-74.109
-78.159
-82.389
-86.515
-90.268
-93.479
-95.918
-97.182
-96.955
-95.202
-92.206
-88.642
-85.128
-82.105
-80.164
-80.07
-82.712
-87.569
-92.221
-94.178
-91.049
-83.365
-76.02
-71.504
-69.463
-66.387
-50.768
-13.093
50.457
141.218
248.958
356.783
447.841
502.89
508.828
462.682
367.979
233.693
73.375
-98.809
-268.481
-416.959
-527.486
-589.369
-598.376
-563.324
-501.613
-431.169
-369.076
-324.724
-296.917
-279.96
-264.607
-242.035
-211.186
-175.166
-139.038
-109.108
-87.106
-71.534
-60.841
-52.845
-46.24
-40.891
-36.268
-31.584
-26.589
-21.279
-15.584
-9.654
-3.795
1.807
6.693
10.18
12.08
12.505
11.602
9.727
7.244
4.42
1.658
-0.574
-2.035
-2.607
-2.247
-1.033
0.982
3.766
7.212
11.196
15.609
20.331
25.266
30.326
35.385
40.324
45.056
49.511
53.653
57.473
60.957
64.11
66.958
69.532
71.87
74.012
75.989
77.841
79.614
81.359
83.133
84.983
86.942
89.034
91.274
93.672
96.233
98.955
101.826
104.834
107.972
111.23
114.604
118.084
121.656
125.306
129.015
132.768
136.551
140.348
144.143
147.918
151.658
155.347
158.972
162.514
165.956
169.277
172.456
175.473
178.308
180.939
183.347
185.513
187.417
189.045
190.38
191.411
192.122
192.504
192.547
192.243
191.585
190.57
189.194
187.456
185.358
182.902
180.092
176.937
173.444
169.622
165.484
161.044
156.317
151.318
146.066
140.579
134.878
128.985
122.923
116.713
110.381
103.951
97.446
90.892
84.313
77.733
71.175
64.661
58.215
51.858
45.609
39.489
33.515
27.705
22.076
16.64
11.413
6.403
1.623
-2.92
-7.22
-11.27
-15.067
-18.609
-21.895
-24.925
-27.701
-30.228
-32.509
-34.551
-36.36
-37.945
-39.315
-40.479
-41.448
-42.233
-42.846
-43.297
-43.599
-43.763
-43.802
-43.729
-43.553
-43.289
-42.946
-42.535
-42.068
-41.554
-41.002
-40.42
-39.817
-39.199
-38.573
-37.943
-37.316
-36.694
-36.082
-35.482
-34.895
-34.323
-33.766
-33.225
-32.699
-32.187
-31.688
-31.2
-30.722
-30.253
-29.79
-29.332
-28.878
-28.426
-27.975
-27.523
-27.069
-26.613
-26.155
-25.693
-25.228
-24.762
-24.295
-23.829
-23.366
-22.908
-22.458
-22.019
-21.593
-21.185
-20.798
-20.436
-20.103
-19.803
-19.541
-19.321
-19.147
-19.022
-18.951
-18.937
-18.981
-19.086
-19.252
-19.481
-19.771
-20.123
-20.535
-21.005
-21.532
-22.11
-22.738
-23.409
-24.12
-24.863
-25.631
-26.419
-27.218
-28.02
-28.818
-29.602
-30.365
-31.097
-31.791
-32.438
-33.028
-33.555
-34.009
-34.382
-34.67
-34.864
-34.959
-34.95
-34.835
-34.612
-34.281
-33.845
-33.304
-32.662
-31.923
-31.094
-30.18
-29.187
-28.121
-26.987
-25.794
-24.552
-23.271
-21.962
-20.638
-19.309
-17.989
-16.689
-15.42
-14.191
-13.007
-11.876
-10.806
-9.807
-8.897
-8.091
-7.397
-6.824
-6.378
-6.059
-5.862
-5.775
-5.774
-5.839
-5.956
-6.11
-6.296
-6.509
-6.737
-6.968
-7.185
-7.365
-7.5
-7.589
-7.631
-7.652
-7.689
-7.79
-8.035
-8.485
-9.192
-10.216
-11.596
-13.372
-15.595
-18.279
-21.444
-25.152
-29.403
-34.132
-39.202
-44.308
-49.086
-53.252
-56.473
-58.366
-58.7
-57.378
-54.584
-50.973
-47.349
-44.359
-42.524
-42.445
-44.609
-49.08
-55.43
-61.77
-64.973
-63.247
-55.688
-42.356
-25.213
-3.227
26.454
65.645
116.914
178.584
245.287
312.312
373.154
421.005
450.268
452.951
421.255
352.243
245.229
106.826
-46.917
-198.745
-328.235
-419.127
-468.632
-480.278
-464.253
-433.304
-393.085
-347.646
-301.467
-256.668
-216.859
-183.572
-153.057
-122.789
-91.869
-61.167
-35.137
-16.63
-5.489
-0.454
1.028
1.132
0.724
0.484
1.101
2.847
5.715
9.557
14.014
18.604
22.953
26.586
28.937
29.857
29.49
28.067
25.944
23.439
20.815
18.408
16.59
15.554
15.355
15.977
17.319
19.308
21.885
24.955
28.387
32.054
35.832
39.608
43.317
46.896
50.275
53.404
56.242
58.768
60.993
62.935
64.611
66.045
67.265
68.306
69.212
70.034
70.826
71.643
72.53
73.522
74.649
75.935
77.396
79.045
80.883
82.906
85.11
87.496
90.06
92.799
95.708
98.775
101.991
105.341
108.811
112.388
116.058
119.805
123.615
127.472
131.36
135.265
139.168
143.049
146.886
150.658
154.34
157.908
161.34
164.61
167.696
170.575
173.225
175.625
177.756
179.598
181.135
182.349
183.227
183.754
183.919
183.714
183.131
182.163
180.809
179.065
176.935
174.421
171.528
168.262
164.635
160.656
156.339
151.699
146.753
141.519
136.017
130.268
124.295
118.121
111.771
105.27
98.644
91.918
85.118
78.272
71.404
64.54
57.706
50.925
44.222
37.619
31.138
24.798
18.62
12.621
6.817
1.223
-4.149
-9.286
-14.181
-18.824
-23.21
-27.334
-31.194
-34.788
-38.118
-41.185
-43.992
-46.546
-48.851
-50.916
-52.749
-54.361
-55.761
-56.963
-57.977
-58.818
-59.498
-60.033
-60.436
-60.721
-60.903
-60.996
-61.014
-60.971
-60.88
-60.753
-60.602
-60.44
-60.276
-60.12
-59.981
-59.867
-59.786
-59.744
-59.746
-59.797
-59.901
-60.061
-60.28
-60.558
-60.897
-61.296
-61.755
-62.272
-62.845
-63.471
-64.146
-64.868
-65.631
-66.431
-67.263
-68.121
-69.001
-69.896
-70.801
-71.711
-72.621
-73.525
-74.418
-75.295
-76.154
-76.988
-77.794
-78.57
-79.31
-80.013
-80.674
-81.292
-81.863
-82.385
-82.857
-83.275
-83.639
-83.946
-84.196
-84.387
-84.519
-84.59
-84.601
-84.55
-84.436
-84.261
-84.023
-83.724
-83.363
-82.941
-82.458
-81.915
-81.313
-80.65
-79.928
-79.146
-78.304
-77.403
-76.441
-75.42
-74.339
-73.2
-72.003
-70.751
-69.444
-68.085
-66.676
-65.219
-63.718
-62.176
-60.597
-58.985
-57.344
-55.681
-54.002
-52.315
-50.627
-48.946
-47.282
-45.641
-44.033
-42.467
-40.948
-39.482
-38.074
-36.733
-35.465
-34.279
-33.182
-32.181
-31.283
-30.496
-29.823
-29.268
-28.834
-28.515
-28.311
-28.223
-28.254
-28.412
-28.706
-29.134
-29.7
-30.399
-31.224
-32.166
-33.208
-34.322
-35.483
-36.673
-37.872
-39.072
-40.261
-41.419
-42.524
-43.55
-44.469
-45.262
-45.923
-46.454
-46.872
-47.205
-47.489
-47.772
-48.115
-48.574
-49.211
-50.084
-51.242
-52.728
-54.612
-56.996
-59.936
-63.408
-67.258
-71.196
-74.925
-78.183
-80.657
-81.953
-81.782
-80.088
-77.207
-73.868
-70.858
-68.86
-68.511
-70.497
-75.301
-82.877
-92.366
-102.155
-110.298
-114.698
-113.219
-103.561
-83.427
-52.007
-10.548
39.004
93.789
152.282
215.006
279.736
342.588
396.607
431.393
440.478
418.706
363.599
277.048
159.654
19.317
-129.247
-268.089
-374.459
-437.08
-457.81
-447.211
-424.381
-400.364
-376.759
-351.385
-317.974
-275.31
-227.558
-179.133
-134.978
-98.328
-70.036
-50.048
-37.67
-31.75
-30.865
-33.681
-38.775
-44.236
-48.339
-50.125
-49.197
-45.764
-40.442
-33.742
-26.239
-18.895
-12.674
-8.119
-5.386
-4.244
-4.264
-5.126
-6.552
-8.139
-9.425
-10.084
-9.954
-9.035
-7.431
-5.215
-2.423
0.888
4.625
8.679
12.942
17.305
21.694
26.049
30.314
34.436
38.365
42.062
45.51
48.714
51.689
54.443
56.987
59.33
61.493
63.51
65.424
67.285
69.142
71.036
72.996
75.052
77.227
79.537
81.991
84.589
87.325
90.192
93.191
96.321
99.59
102.997
106.535
110.187
113.93
117.742
121.607
125.503
129.407
133.29
137.131
140.922
144.666
148.369
152.021
155.603
159.081
162.422
165.608
168.637
171.509
174.222
176.768
179.144
181.366
183.449
185.393
187.173
188.728
190.01
190.992
191.66
192.027
192.103
191.875
191.315
190.388
189.057
187.293
185.067
182.328
179.036
175.175
170.763
165.863
160.53
154.79
148.663
142.141
135.209
127.894
120.241
112.313
104.206
96.001
87.774
79.623
71.628
63.852
56.34
49.093
42.112
35.428
29.075
23.116
17.635
12.668
8.225
4.294
0.81
-2.275
-4.993
-7.398
-9.531
-11.424
-13.107
-14.579
-15.83
-16.873
-17.731
-18.45
-19.103
-19.728
-20.341
-20.941
-21.49
-21.963
-22.351
-22.637
-22.805
-22.848
-22.759
-22.552
-22.257
-21.889
-21.455
-20.95
-20.355
-19.665
-18.89
-18.046
-17.163
-16.268
-15.375
-14.506
-13.684
-12.926
-12.243
-11.641
-11.112
-10.653
-10.267
-9.957
-9.734
-9.599
-9.552
-9.592
-9.715
-9.917
-10.197
-10.549
-10.966
-11.442
-11.976
-12.564
-13.21
-13.912
-14.669
-15.479
-16.34
-17.249
-18.205
-19.204
-20.243
-21.317
-22.423
-23.559
-24.722
-25.91
-27.119
-28.347
-29.591
-30.847
-32.112
-33.385
-34.662
-35.94
-37.216
-38.487
-39.751
-41.004
-42.242
-43.461
-44.656
-45.824
-46.958
-48.054
-49.107
-50.112
-51.061
-51.95
-52.773
-53.524
-54.197
-54.786
-55.286
-55.692
-55.999
-56.201
-56.295
-56.276
-56.141
-55.887
-55.511
-55.012
-54.389
-53.64
-52.765
-51.766
-50.644
-49.403
-48.044
-46.572
-44.994
-43.317
-41.552
-39.708
-37.794
-35.823
-33.808
-31.76
-29.695
-27.622
-25.555
-23.505
-21.489
-19.521
-17.615
-15.786
-14.049
-12.419
-10.911
-9.538
-8.309
-7.231
-6.31
-5.552
-4.968
-4.571
-4.368
-4.365
-4.565
-4.972
-5.586
-6.399
-7.393
-8.539
-9.812
-11.192
-12.664
-14.216
-15.828
-17.478
-19.141
-20.794
-22.424
-24.021
-25.562
-27.031
-28.431
-29.794
-31.177
-32.657
-34.284
-36.088
-38.105
-40.384
-42.993
-45.995
-49.434
-53.305
-57.606
-62.4
-67.726
-73.53
-79.615
-85.602
-91.086
-95.768
-99.359
-101.488
-101.872
-100.428
-97.453
-93.701
-89.945
-86.915
-85.341
-85.941
-89.411
-95.167
-101.141
-105.285
-105.221
-100.929
-95.193
-87.513
-76.094
-56.454
-19.903
35.768
108.829
194.934
284.033
369.253
443.342
496.576
520.261
504.18
443.66
341.079
204.547
49.78
-106.696
-248.037
-358.372
-430.216
-463.69
-465.665
-449.15
-423.883
-393.22
-359.511
-321.475
-279.269
-237.923
-198.17
-161.336
-129.284
-100.59
-77.252
-60.672
-49.83
-44.491
-43.01
-43.477
-44.864
-45.975
-45.777
-43.911
-40.467
-35.763
-30.172
-24.084
-17.955
-12.341
-7.928
-5.049
-3.579
-3.245
-3.712
-4.68
-5.922
-7.122
-7.867
-7.894
-7.118
-5.549
-3.291
-0.427
3.009
6.945
11.252
15.808
20.479
25.144
29.74
34.217
38.514
42.58
46.368
49.843
53.004
55.87
58.451
60.764
62.823
64.651
66.287
67.777
69.17
70.515
71.847
73.204
74.62
76.127
77.757
79.515
81.395
83.397
85.52
87.769
90.165
92.675
95.256
97.962
100.823
103.88
107.199
110.685
114.208
117.798
121.468
125.068
128.52
131.64
134.195
136.385
138.44
140.342
142.135
143.956
145.842
148.046
150.865
154.005
157.167
160.278
163.173
165.751
167.997
169.648
170.429
170.528
170.123
169.274
168.118
166.649
164.816
162.746
160.557
158.168
155.521
152.58
149.275
145.644
141.739
137.543
133.056
128.303
123.301
118.081
112.681
107.106
101.366
95.478
89.458
83.331
77.126
70.863
64.567
58.26
51.964
45.702
39.495
33.364
27.332
21.416
15.636
10.009
4.552
-0.719
-5.787
-10.643
-15.275
-19.676
-23.837
-27.751
-31.413
-34.82
-37.968
-40.855
-43.483
-45.851
-47.961
-49.817
-51.424
-52.787
-53.913
-54.809
-55.483
-55.946
-56.207
-56.276
-56.165
-55.884
-55.446
-54.861
-54.142
-53.301
-52.348
-51.297
-50.157
-48.941
-47.66
-46.324
-44.944
-43.53
-42.09
-40.635
-39.173
-37.711
-36.259
-34.823
-33.411
-32.03
-30.686
-29.384
-28.131
-26.931
-25.788
-24.707
-23.69
-22.741
-21.861
-21.055
-20.322
-19.665
-19.086
-18.586
-18.165
-17.825
-17.567
-17.39
-17.296
-17.283
-17.352
-17.502
-17.733
-18.045
-18.436
-18.906
-19.453
-20.077
-20.774
-21.544
-22.383
-23.289
-24.258
-25.288
-26.375
-27.515
-28.705
-29.941
-31.218
-32.532
-33.88
-35.256
-36.656
-38.074
-39.504
-40.94
-42.376
-43.806
-45.223
-46.62
-47.992
-49.331
-50.631
-51.885
-53.087
-54.23
-55.307
-56.313
-57.24
-58.084
-58.838
-59.498
-60.061
-60.522
-60.88
-61.131
-61.273
-61.307
-61.231
-61.044
-60.747
-60.341
-59.826
-59.206
-58.484
-57.663
-56.75
-55.753
-54.679
-53.538
-52.339
-51.092
-49.807
-48.493
-47.16
-45.814
-44.464
-43.119
-41.787
-40.479
-39.203
-37.968
-36.784
-35.656
-34.591
-33.595
-32.669
-31.813
-31.026
-30.311
-29.675
-29.132
-28.694
-28.367
-28.155
-28.06
-28.08
-28.21
-28.437
-28.734
-29.077
-29.441
-29.806
-30.165
-30.501
-30.795
-31.028
-31.161
-31.163
-31.027
-30.754
-30.35
-29.843
-29.254
-28.619
-28.023
-27.553
-27.304
-27.371
-27.807
-28.654
-29.978
-31.868
-34.409
-37.62
-41.349
-45.348
-49.379
-53.211
-56.616
-59.286
-60.834
-61.073
-60.266
-58.923
-57.604
-56.959
-57.55
-59.972
-65.089
-72.654
-80.705
-87.513
-91.296
-91.72
-91.409
-90.726
-86.866
-75.345
-48.994
-3.286
59.982
137.066
222.552
309.566
392.982
464.19
510.79
521.148
485.686
402.904
279.329
126.986
-38.238
-200.621
-344.421
-456.394
-528.36
-558.738
-553.078
-521.138
-474.427
-422.098
-371.347
-326.722
-288.504
-255.641
-224.36
-191.313
-157.069
-123.831
-95.646
-75.635
-63.531
-57.454
-54.966
-54.134
-54.053
-54.254
-54.174
-53.097
-50.767
-47.381
-43.21
-38.688
-34.214
-30.038
-26.601
-24.364
-23.407
-23.586
-24.641
-26.204
-27.974
-29.725
-31.156
-31.954
-31.964
-31.127
-29.469
-27.093
-24.084
-20.513
-16.483
-12.126
-7.563
-2.909
1.732
6.291
10.707
14.92
18.894
22.603
26.04
29.21
32.131
34.824
37.317
39.643
41.833
43.928
45.972
48.011
50.099
52.275
54.566
56.998
59.582
62.329
65.244
68.321
71.552
74.927
78.437
82.072
85.826
89.687
93.64
97.671
101.76
105.89
110.045
114.206
118.356
122.477
126.55
130.557
134.482
138.306
142.008
145.569
148.965
152.175
155.179
157.956
160.485
162.749
164.728
166.408
167.776
168.818
169.523
169.884
169.891
169.541
168.828
167.751
166.31
164.506
162.342
159.824
156.958
153.754
150.222
146.376
142.228
137.795
133.095
128.146
122.968
117.582
112.011
106.278
100.405
94.419
88.343
82.203
76.024
69.829
63.644
57.493
51.396
45.377
39.456
33.652
27.985
22.471
17.126
11.965
7.003
2.251
-2.279
-6.579
-10.639
-14.455
-18.02
-21.332
-24.389
-27.19
-29.737
-32.032
-34.078
-35.882
-37.449
-38.787
-39.904
-40.81
-41.516
-42.032
-42.371
-42.544
-42.564
-42.445
-42.198
-41.837
-41.374
-40.821
-40.192
-39.497
-38.75
-37.96
-37.141
-36.301
-35.451
-34.602
-33.761
-32.937
-32.137
-31.369
-30.638
-29.95
-29.309
-28.719
-28.184
-27.706
-27.287
-26.928
-26.63
-26.393
-26.216
-26.099
-26.039
-26.036
-26.086
-26.188
-26.34
-26.539
-26.782
-27.068
-27.392
-27.754
-28.149
-28.576
-29.032
-29.514
-30.021
-30.55
-31.098
-31.665
-32.249
-32.848
-33.46
-34.086
-34.725
-35.375
-36.036
-36.708
-37.39
-38.083
-38.786
-39.498
-40.221
-40.954
-41.696
-42.447
-43.207
-43.974
-44.748
-45.528
-46.311
-47.096
-47.882
-48.665
-49.443
-50.212
-50.969
-51.71
-52.431
-53.127
-53.793
-54.426
-55.018
-55.566
-56.063
-56.504
-56.883
-57.193
-57.429
-57.584
-57.653
-57.63
-57.509
-57.286
-56.955
-56.512
-55.955
-55.281
-54.488
-53.573
-52.536
-51.378
-50.099
-48.701
-47.187
-45.561
-43.828
-41.993
-40.068
-38.061
-35.982
-33.842
-31.653
-29.427
-27.179
-24.92
-22.661
-20.414
-18.192
-16.009
-13.879
-11.816
-9.834
-7.947
-6.17
-4.516
-2.996
-1.617
-0.384
0.7
1.628
2.393
2.984
3.389
3.604
3.623
3.441
3.063
2.498
1.764
0.89
-0.1
-1.184
-2.341
-3.555
-4.811
-6.087
-7.366
-8.628
-9.846
-10.999
-12.067
-13.038
-13.934
-14.788
-15.648
-16.583
-17.639
-18.866
-20.336
-22.115
-24.269
-26.849
-29.857
-33.305
-37.277
-41.825
-46.912
-52.375
-57.865
-63.004
-67.521
-71.102
-73.332
-73.887
-72.641
-69.874
-66.349
-62.875
-60.227
-59.233
-60.736
-65.558
-73.147
-81.242
-87.483
-89.251
-86.612
-82.825
-77.744
-69.461
-52.59
-16.805
41.27
120.324
215.363
314.072
407.421
486.395
540.02
560.282
538.098
469.654
358.341
212.545
47.874
-118.511
-268.917
-387.527
-466.229
-504.481
-509.31
-491.064
-458.048
-414.799
-363.956
-309.796
-257.559
-212.681
-177.462
-148.752
-123.186
-98.913
-76.315
-59.063
-49.251
-46.263
-48.232
-51.784
-54.258
-54.392
-51.656
-46.26
-38.65
-29.349
-19.026
-8.482
1.347
9.553
15.664
19.606
21.575
21.98
21.208
19.646
17.752
15.997
14.729
14.125
14.24
15.028
16.455
18.505
21.142
24.298
27.89
31.844
36.078
40.514
45.074
49.65
54.154
58.513
62.66
66.554
70.177
73.521
76.587
79.393
81.949
84.277
86.413
88.39
90.25
92.041
93.809
95.609
97.487
99.481
101.618
103.918
106.392
109.048
111.887
114.906
118.1
121.466
124.996
128.685
132.526
136.506
140.61
144.821
149.121
153.494
157.921
162.385
166.867
171.348
175.808
180.229
184.588
188.864
193.031
197.063
200.934
204.62
208.094
211.33
214.305
216.995
219.378
221.435
223.147
224.497
225.469
226.051
226.23
225.998
225.347
224.273
222.774
220.848
218.498
215.729
212.547
208.96
204.98
200.619
195.892
190.816
185.41
179.695
173.693
167.427
160.923
154.207
147.306
140.249
133.063
125.778
118.422
111.025
103.614
96.218
88.863
81.576
74.382
67.305
60.368
53.593
46.999
40.605
34.428
28.482
22.781
17.338
12.16
7.258
2.636
-1.7
-5.747
-9.506
-12.976
-16.16
-19.062
-21.688
-24.044
-26.139
-27.981
-29.581
-30.95
-32.101
-33.045
-33.796
-34.368
-34.774
-35.029
-35.147
-35.142
-35.027
-34.817
-34.525
-34.163
-33.745
-33.28
-32.782
-32.259
-31.723
-31.183
-30.647
-30.123
-29.618
-29.138
-28.688
-28.274
-27.9
-27.568
-27.282
-27.043
-26.853
-26.713
-26.624
-26.586
-26.599
-26.664
-26.779
-26.943
-27.155
-27.414
-27.72
-28.069
-28.461
-28.894
-29.368
-29.88
-30.43
-31.016
-31.638
-32.292
-32.979
-33.697
-34.445
-35.22
-36.021
-36.847
-37.696
-38.567
-39.457
-40.365
-41.29
-42.228
-43.177
-44.134
-45.097
-46.061
-47.023
-47.978
-48.922
-49.852
-50.761
-51.645
-52.5
-53.32
-54.1
-54.833
-55.516
-56.141
-56.703
-57.197
-57.617
-57.957
-58.214
-58.384
-58.461
-58.445
-58.332
-58.12
-57.808
-57.396
-56.884
-56.271
-55.56
-54.754
-53.855
-52.867
-51.797
-50.651
-49.439
-48.169
-46.853
-45.5
-44.122
-42.731
-41.338
-39.955
-38.59
-37.254
-35.957
-34.711
-33.529
-32.422
-31.401
-30.476
-29.656
-28.948
-28.359
-27.893
-27.548
-27.324
-27.221
-27.243
-27.404
-27.712
-28.169
-28.777
-29.53
-30.422
-31.443
-32.577
-33.793
-35.07
-36.377
-37.695
-39.018
-40.331
-41.622
-42.869
-44.031
-45.073
-45.984
-46.753
-47.385
-47.902
-48.317
-48.669
-49.026
-49.447
-50.007
-50.775
-51.794
-53.111
-54.749
-56.737
-59.177
-62.107
-65.472
-69.123
-72.733
-75.97
-78.63
-80.448
-81.063
-80.272
-77.996
-74.521
-70.731
-67.467
-65.307
-64.916
-66.854
-71.442
-78.962
-88.088
-95.667
-98.996
-95.519
-85.584
-72.761
-58.293
-42.242
-20.387
16.072
71.515
147.188
237.883
330.337
411.224
466.414
485.555
463.918
400.197
299.321
166.796
11.988
-150.29
-305.532
-434.733
-522.783
-566.292
-567.803
-538.921
-495.047
-445.638
-398.823
-358.81
-324.041
-293.144
-261.983
-227.013
-189.595
-152.673
-120.979
-97.839
-82.91
-74.348
-69.764
-67.357
-66.061
-64.903
-62.868
-59.284
-54.081
-47.557
-40.057
-31.996
-23.904
-16.437
-10.423
-6.323
-4.106
-3.554
-4.318
-6.039
-8.381
-10.903
-13.083
-14.593
-15.304
-15.184
-14.304
-12.713
-10.429
-7.525
-4.121
-0.317
3.795
8.132
12.634
17.212
21.739
26.108
30.234
34.064
37.576
40.764
43.622
46.157
48.396
50.375
52.134
53.715
55.152
56.485
57.761
59.032
60.358
61.791
63.365
65.108
67.037
69.165
71.502
74.05
76.801
79.749
82.886
86.208
89.712
93.39
97.229
101.216
105.332
109.562
113.889
118.295
122.762
127.268
131.795
136.322
140.828
145.293
149.692
153.997
158.184
162.225
166.093
169.763
173.206
176.398
179.315
181.933
184.231
186.189
187.788
189.012
189.845
190.275
190.29
189.882
189.044
187.772
186.064
183.921
181.346
178.345
174.926
171.099
166.877
162.275
157.311
152.002
146.371
140.44
134.234
127.777
121.098
114.223
107.181
100.001
92.713
85.346
77.931
70.495
63.069
55.679
48.355
41.122
34.006
27.032
20.223
13.6
7.183
0.993
-4.956
-10.648
-16.07
-21.212
-26.063
-30.617
-34.87
-38.817
-42.459
-45.795
-48.829
-51.564
-54.006
-56.163
-58.043
-59.656
-61.013
-62.125
-63.006
-63.668
-64.125
-64.393
-64.485
-64.417
-64.204
-63.862
-63.406
-62.851
-62.211
-61.503
-60.739
-59.934
-59.1
-58.25
-57.394
-56.544
-55.709
-54.898
-54.119
-53.379
-52.683
-52.037
-51.444
-50.909
-50.432
-50.016
-49.662
-49.369
-49.139
-48.971
-48.862
-48.814
-48.823
-48.888
-49.007
-49.178
-49.398
-49.664
-49.974
-50.324
-50.712
-51.134
-51.588
-52.071
-52.58
-53.112
-53.664
-54.235
-54.822
-55.423
-56.035
-56.658
-57.29
-57.928
-58.573
-59.224
-59.879
-60.539
-61.202
-61.869
-62.537
-63.206
-63.874
-64.54
-65.202
-65.858
-66.505
-67.14
-67.761
-68.366
-68.951
-69.513
-70.05
-70.556
-71.03
-71.467
-71.862
-72.214
-72.516
-72.767
-72.962
-73.098
-73.171
-73.178
-73.118
-72.987
-72.782
-72.501
-72.142
-71.703
-71.184
-70.583
-69.899
-69.134
-68.29
-67.368
-66.375
-65.316
-64.195
-63.019
-61.797
-60.535
-59.241
-57.922
-56.583
-55.231
-53.873
-52.516
-51.17
-49.845
-48.546
-47.283
-46.064
-44.894
-43.779
-42.722
-41.719
-40.773
-39.885
-39.06
-38.314
-37.657
-37.095
-36.635
-36.281
-36.029
-35.876
-35.811
-35.81
-35.856
-35.933
-36.025
-36.132
-36.249
-36.362
-36.456
-36.503
-36.473
-36.348
-36.115
-35.775
-35.348
-34.864
-34.358
-33.885
-33.501
-33.267
-33.254
-33.519
-34.102
-35.025
-36.33
-38.126
-40.507
-43.473
-46.867
-50.376
-53.681
-56.545
-58.692
-59.728
-59.334
-57.423
-54.4
-51.158
-48.562
-47.377
-48.42
-52.471
-60.133
-70.792
-82.126
-91.463
-96.946
-99.04
-99.528
-97.901
-89.858
-68.045
-26.94
33.733
108.012
186.114
262.345
333.258
395.036
443.968
469.635
460.38
412.525
325.607
205.588
67.066
-77.862
-213.95
-322.333
-395.59
-432.136
-438.33
-431.043
-419.756
-407.089
-391.79
-367.28
-331.958
-289.169
-243.141
-199.028
-159.77
-126.601
-100.436
-81.089
-67.981
-60.32
-56.834
-56.432
-58.019
-59.909
-60.513
-58.999
-55.069
-48.951
-41.198
-32.245
-22.604
-13.185
-4.95
1.547
6.114
8.911
10.303
10.577
10.027
9.063
8.143
7.607
7.629
8.24
9.378
10.997
13.079
15.59
18.462
21.623
25.017
28.582
32.273
36.036
39.784
43.449
46.976
50.31
53.427
56.322
58.989
61.44
63.696
65.772
67.693
69.49
71.193
72.835
74.459
76.102
77.813
79.633
81.592
83.716
86.022
88.517
91.208
94.093
97.165
100.417
103.841
107.427
111.167
115.05
119.06
123.18
127.39
131.668
135.996
140.352
144.716
149.067
153.383
157.642
161.825
165.912
169.878
173.701
177.357
180.823
184.077
187.096
189.858
192.345
194.536
196.416
197.97
199.184
200.047
200.55
200.684
200.444
199.827
198.831
197.456
195.705
193.583
191.096
188.253
185.065
181.544
177.704
173.561
169.131
164.434
159.488
154.315
148.937
143.375
137.653
131.795
125.824
119.765
113.642
107.478
101.297
95.123
88.976
82.88
76.853
70.917
65.089
59.386
53.825
48.421
43.188
38.137
33.28
28.627
24.185
19.962
15.962
12.19
8.648
5.337
2.258
-0.592
-3.214
-5.613
-7.792
-9.758
-11.516
-13.075
-14.441
-15.624
-16.632
-17.474
-18.16
-18.7
-19.104
-19.382
-19.543
-19.598
-19.556
-19.427
-19.221
-18.946
-18.612
-18.227
-17.8
-17.338
-16.85
-16.341
-15.82
-15.291
-14.76
-14.233
-13.713
-13.205
-12.713
-12.239
-11.787
-11.359
-10.956
-10.581
-10.235
-9.919
-9.633
-9.378
-9.156
-8.965
-8.806
-8.679
-8.585
-8.524
-8.495
-8.499
-8.536
-8.605
-8.707
-8.841
-9.006
-9.203
-9.431
-9.691
-9.982
-10.304
-10.658
-11.043
-11.459
-11.907
-12.386
-12.896
-13.437
-14.008
-14.61
-15.24
-15.899
-16.587
-17.302
-18.044
-18.811
-19.601
-20.414
-21.247
-22.097
-22.96
-23.835
-24.718
-25.605
-26.493
-27.378
-28.257
-29.126
-29.981
-30.816
-31.628
-32.412
-33.162
-33.874
-34.542
-35.163
-35.73
-36.241
-36.69
-37.076
-37.393
-37.64
-37.814
-37.912
-37.931
-37.871
-37.73
-37.508
-37.205
-36.822
-36.363
-35.832
-35.233
-34.572
-33.855
-33.089
-32.281
-31.438
-30.565
-29.669
-28.753
-27.826
-26.895
-25.967
-25.053
-24.159
-23.296
-22.471
-21.692
-20.966
-20.297
-19.684
-19.129
-18.634
-18.206
-17.855
-17.593
-17.424
-17.356
-17.39
-17.524
-17.749
-18.05
-18.4
-18.776
-19.158
-19.528
-19.874
-20.189
-20.455
-20.658
-20.777
-20.787
-20.674
-20.428
-20.048
-19.564
-19.018
-18.466
-17.986
-17.639
-17.485
-17.606
-18.062
-18.902
-20.172
-21.879
-24.062
-26.848
-30.274
-34.253
-38.624
-43.058
-47.223
-50.919
-53.788
-55.29
-55.144
-53.392
-50.301
-46.586
-43.064
-40.277
-39.016
-40.525
-44.569
-49.347
-53.498
-54.893
-54.055
-55.073
-57.825
-59.191
-52.423
-26.625
22.304
91.64
175.199
262.726
346.401
420.956
478.155
509.527
508.251
468.98
394.429
291.926
167.284
29.806
-111.369
-245.522
-355.617
-429.789
-464.371
-463.68
-442.041
-412.702
-381.777
-350.826
-316.791
-276.861
-232.922
-188.237
-146.404
-111.064
-83.408
-63.152
-49.686
-41.6
-37.43
-36.334
-37.263
-38.829
-39.924
-39.563
-37.276
-33.351
-28.257
-22.347
-16.087
-10.055
-4.852
-1.156
0.744
1.033
0.02
-1.909
-4.406
-7.187
-9.886
-12.089
-13.541
-14.154
-13.932
-12.967
-11.322
-9.028
-6.157
-2.801
0.935
4.94
9.114
13.366
17.622
21.816
25.883
29.773
33.452
36.908
40.146
43.187
46.046
48.739
51.294
53.736
56.108
58.459
60.838
63.299
65.884
68.622
71.542
74.662
77.992
81.534
85.284
89.23
93.369
97.706
102.236
106.951
111.832
116.852
121.978
127.174
132.407
137.634
142.82
147.942
152.981
157.941
162.824
167.623
172.32
176.881
181.273
185.481
189.492
193.3
196.914
200.339
203.585
206.691
209.674
212.521
215.202
217.648
219.772
221.52
222.849
223.733
224.157
224.085
223.485
222.334
220.593
218.225
215.185
211.394
206.799
201.398
195.219
188.339
180.869
172.889
164.468
155.677
146.568
137.206
127.656
117.964
108.183
98.379
88.631
79.048
69.724
60.712
52.043
43.712
35.686
27.954
20.511
13.341
6.447
-0.171
-6.509
-12.547
-18.263
-23.654
-28.723
-33.495
-37.993
-42.224
-46.185
-49.866
-53.245
-56.308
-59.051
-61.46
-63.534
-65.278
-66.701
-67.827
-68.683
-69.29
-69.668
-69.833
-69.799
-69.586
-69.214
-68.706
-68.085
-67.373
-66.593
-65.77
-64.925
-64.078
-63.247
-62.443
-61.678
-60.964
-60.31
-59.725
-59.219
-58.798
-58.469
-58.239
-58.112
-58.093
-58.184
-58.384
-58.695
-59.113
-59.637
-60.262
-60.983
-61.797
-62.695
-63.673
-64.724
-65.84
-67.014
-68.239
-69.509
-70.815
-72.152
-73.511
-74.888
-76.275
-77.667
-79.059
-80.447
-81.827
-83.195
-84.55
-85.888
-87.209
-88.51
-89.792
-91.052
-92.291
-93.508
-94.704
-95.879
-97.033
-98.167
-99.283
-100.381
-101.464
-102.531
-103.584
-104.623
-105.65
-106.663
-107.663
-108.648
-109.618
-110.57
-111.503
-112.415
-113.303
-114.164
-114.994
-115.79
-116.548
-117.262
-117.927
-118.538
-119.089
-119.573
-119.985
-120.32
-120.57
-120.731
-120.798
-120.766
-120.632
-120.39
-120.039
-119.574
-118.994
-118.298
-117.486
-116.558
-115.514
-114.359
-113.097
-111.733
-110.275
-108.731
-107.108
-105.416
-103.664
-101.864
-100.024
-98.154
-96.262
-94.36
-92.461
-90.575
-88.717
-86.897
-85.129
-83.427
-81.8
-80.259
-78.812
-77.46
-76.209
-75.064
-74.032
-73.126
-72.354
-71.721
-71.233
-70.894
-70.698
-70.64
-70.705
-70.867
-71.109
-71.415
-71.77
-72.168
-72.595
-73.039
-73.487
-73.921
-74.322
-74.674
-74.962
-75.182
-75.351
-75.497
-75.659
-75.894
-76.241
-76.744
-77.461
-78.433
-79.72
-81.377
-83.421
-85.887
-88.834
-92.275
-96.166
-100.358
-104.538
-108.355
-111.526
-113.748
-114.716
-114.209
-112.163
-108.871
-104.999
-101.405
-98.835
-97.783
-98.835
-102.55
-109.087
-117.95
-127.078
-133.03
-132.941
-125.357
-111.518
-94.212
-74.459
-50.846
-17.543
31.481
98.33
181.264
271.376
357.491
428.515
473.267
483.187
450.813
373.329
252.508
96.635
-77.175
-250.07
-401.153
-512.267
-576.412
-593.747
-571.834
-525.783
-468.291
-409.521
-358.843
-317.201
-282.531
-252.107
-218.896
-181.058
-140.993
-101.541
-68.471
-44.683
-29.26
-20.652
-16.375
-14.542
-14.387
-15.175
-16.025
-16.025
-14.714
-12.081
-8.27
-3.676
1.266
6.175
10.446
13.506
15.188
15.568
14.875
13.469
11.677
9.78
8.132
7.075
6.776
7.287
8.573
10.522
13.037
16.037
19.413
23.034
26.791
30.581
34.309
37.912
41.328
44.498
47.389
49.982
52.272
54.274
56.012
57.517
58.829
59.989
61.036
62.015
62.973
63.962
65.037
66.243
67.615
69.18
70.959
72.965
75.209
77.691
80.406
83.347
86.506
89.875
93.448
97.215
101.163
105.274
109.531
113.916
118.41
122.996
127.653
132.362
137.102
141.85
146.589
151.295
155.943
160.509
164.965
169.285
173.443
177.413
181.168
184.683
187.936
190.902
193.562
195.896
197.886
199.515
200.769
201.634
202.101
202.161
201.808
201.038
199.848
198.24
196.217
193.784
190.948
187.718
184.106
180.125
175.792
171.122
166.136
160.854
155.298
149.492
143.461
137.229
130.823
124.27
117.597
110.831
104
97.131
90.25
83.385
76.56
69.8
63.129
56.57
50.144
43.872
37.772
31.862
26.159
20.675
15.424
10.418
5.665
1.173
-3.052
-7.006
-10.685
-14.089
-17.218
-20.075
-22.662
-24.985
-27.049
-28.861
-30.429
-31.763
-32.871
-33.764
-34.454
-34.952
-35.27
-35.42
-35.416
-35.268
-34.991
-34.596
-34.096
-33.503
-32.829
-32.085
-31.282
-30.43
-29.541
-28.622
-27.684
-26.733
-25.778
-24.825
-23.88
-22.949
-22.037
-21.147
-20.284
-19.451
-18.651
-17.886
-17.157
-16.468
-15.818
-15.208
-14.64
-14.113
-13.629
-13.186
-12.785
-12.426
-12.108
-11.833
-11.598
-11.404
-11.25
-11.136
-11.061
-11.026
-11.029
-11.071
-11.151
-11.27
-11.427
-11.623
-11.858
-12.131
-12.442
-12.791
-13.178
-13.601
-14.06
-14.554
-15.081
-15.641
-16.231
-16.85
-17.494
-18.161
-18.848
-19.55
-20.263
-20.984
-21.707
-22.429
-23.143
-23.845
-24.529
-25.19
-25.823
-26.422
-26.98
-27.492
-27.951
-28.351
-28.686
-28.951
-29.139
-29.247
-29.268
-29.199
-29.037
-28.778
-28.42
-27.96
-27.398
-26.735
-25.969
-25.104
-24.142
-23.085
-21.94
-20.713
-19.414
-18.05
-16.629
-15.163
-13.663
-12.139
-10.603
-9.064
-7.531
-6.015
-4.529
-3.085
-1.695
-0.372
0.873
2.029
3.083
4.026
4.852
5.559
6.146
6.609
6.942
7.133
7.174
7.061
6.791
6.361
5.774
5.039
4.171
3.198
2.145
1.031
-0.129
-1.327
-2.55
-3.784
-5.005
-6.19
-7.314
-8.357
-9.296
-10.114
-10.823
-11.447
-12.037
-12.666
-13.378
-14.218
-15.236
-16.481
-18.011
-19.87
-22.07
-24.639
-27.663
-31.215
-35.3
-39.783
-44.342
-48.625
-52.328
-55.114
-56.569
-56.325
-54.233
-50.622
-46.294
-42.12
-38.991
-37.784
-39.389
-44.783
-53.446
-62.893
-70.618
-73.886
-72.976
-71.831
-70.561
-66.745
-53.589
-18.94
41.365
125.349
226.326
329.405
424.786
505.225
561.634
590.432
584.553
536.963
448.495
320.031
160.942
-10.55
-177.347
-318.077
-416.773
-471.076
-483.449
-465.09
-431.314
-390.843
-351.865
-319.078
-290.786
-265.299
-238.456
-206.237
-169.218
-130.332
-94.407
-64.975
-42.614
-26.191
-13.33
-2.793
5.566
12.099
16.925
20.353
22.851
24.37
24.751
24.168
22.896
21.246
19.48
17.639
15.897
14.731
14.499
15.331
17.064
19.207
21.449
23.729
25.853
27.487
28.41
28.522
28.027
27.487
27.255
27.446
28.191
29.589
31.691
34.532
37.958
41.599
45.203
48.643
51.841
54.809
57.545
60.016
62.245
64.308
66.267
68.173
70.052
71.896
73.715
75.545
77.427
79.416
81.555
83.863
86.359
89.052
91.948
95.053
98.362
101.862
105.538
109.378
113.373
117.519
121.805
126.213
130.723
135.309
139.95
144.624
149.309
153.984
158.624
163.207
167.71
172.113
176.393
180.525
184.484
188.243
191.778
195.065
198.08
200.8
203.203
205.27
206.983
208.326
209.283
209.842
209.991
209.721
209.025
207.898
206.337
204.341
201.912
199.053
195.772
192.075
187.975
183.483
178.613
173.383
167.811
161.916
155.721
149.248
142.522
135.569
128.416
121.091
113.621
106.036
98.365
90.635
82.878
75.12
67.391
59.717
52.124
44.64
37.288
30.092
23.074
16.255
9.656
3.292
-2.818
-8.662
-14.225
-19.498
-24.471
-29.137
-33.491
-37.53
-41.25
-44.654
-47.742
-50.519
-52.989
-55.16
-57.04
-58.639
-59.968
-61.038
-61.863
-62.457
-62.832
-63.006
-62.992
-62.808
-62.468
-61.99
-61.39
-60.683
-59.886
-59.015
-58.084
-57.108
-56.102
-55.078
-54.05
-53.029
-52.027
-51.055
-50.121
-49.233
-48.401
-47.629
-46.923
-46.289
-45.729
-45.246
-44.842
-44.518
-44.275
-44.112
-44.029
-44.024
-44.095
-44.241
-44.457
-44.741
-45.09
-45.5
-45.967
-46.488
-47.057
-47.672
-48.327
-49.018
-49.742
-50.494
-51.269
-52.064
-52.874
-53.695
-54.524
-55.358
-56.192
-57.025
-57.852
-58.671
-59.479
-60.272
-61.049
-61.805
-62.538
-63.245
-63.922
-64.566
-65.175
-65.745
-66.274
-66.756
-67.19
-67.571
-67.897
-68.162
-68.364
-68.499
-68.563
-68.555
-68.471
-68.31
-68.069
-67.747
-67.344
-66.858
-66.289
-65.637
-64.902
-64.085
-63.187
-62.211
-61.161
-60.04
-58.855
-57.612
-56.32
-54.985
-53.617
-52.224
-50.814
-49.396
-47.976
-46.563
-45.164
-43.789
-42.448
-41.151
-39.91
-38.733
-37.629
-36.606
-35.669
-34.825
-34.072
-33.412
-32.845
-32.378
-32.025
-31.798
-31.704
-31.746
-31.925
-32.235
-32.672
-33.222
-33.863
-34.57
-35.318
-36.088
-36.878
-37.682
-38.494
-39.297
-40.054
-40.738
-41.338
-41.853
-42.293
-42.67
-42.999
-43.314
-43.681
-44.169
-44.852
-45.798
-47.049
-48.639
-50.584
-52.913
-55.72
-59.033
-62.777
-66.79
-70.749
-74.345
-77.385
-79.614
-80.648
-80.265
-78.461
-75.529
-72.335
-69.745
-68.257
-68.495
-71.096
-76.353
-84.32
-93.668
-101.322
-104.564
-101.082
-90.947
-76.902
-60.121
-41.413
-17.729
18.123
70.394
141.981
228.999
318.347
394.527
440.618
444.919
404.937
326.344
219.86
94.399
-41.514
-181.203
-317.103
-432.887
-513.537
-550.421
-541.707
-502.071
-451.598
-403.145
-365.784
-336.525
-304.688
-266.321
-219.664
-167.937
-120.485
-82.203
-54.766
-38.165
-29.223
-25.463
-25.763
-28.627
-32.257
-34.908
-35.313
-32.935
-27.976
-21.029
-12.615
-3.413
5.448
12.862
18.195
21.24
22.195
21.472
19.414
16.401
13.013
9.839
7.263
5.477
4.491
4.226
4.652
5.755
7.473
9.708
12.366
15.367
18.666
22.227
25.989
29.853
33.694
37.412
40.95
44.275
47.38
50.258
52.9
55.318
57.543
59.611
61.561
63.424
65.225
66.997
68.781
70.624
72.581
74.695
76.99
79.483
82.183
85.096
88.225
91.564
95.096
98.807
102.684
106.714
110.889
115.194
119.609
124.114
128.688
133.31
137.959
142.615
147.255
151.857
156.4
160.863
165.226
169.467
173.561
177.487
181.217
184.73
188.001
191.007
193.725
196.134
198.213
199.946
201.315
202.307
202.91
203.112
202.907
202.288
201.253
199.799
197.928
195.642
192.947
189.85
186.361
182.491
178.252
173.66
168.732
163.486
157.943
152.123
146.049
139.745
133.236
126.547
119.705
112.737
105.671
98.535
91.357
84.166
76.988
69.851
62.782
55.804
48.941
42.218
35.654
29.269
23.081
17.107
11.361
5.857
0.606
-4.383
-9.101
-13.543
-17.704
-21.582
-25.175
-28.483
-31.51
-34.258
-36.731
-38.936
-40.88
-42.572
-44.021
-45.238
-46.235
-47.024
-47.621
-48.037
-48.289
-48.392
-48.359
-48.208
-47.952
-47.606
-47.186
-46.705
-46.176
-45.612
-45.027
-44.431
-43.834
-43.248
-42.681
-42.141
-41.635
-41.171
-40.754
-40.39
-40.082
-39.835
-39.651
-39.533
-39.483
-39.502
-39.589
-39.744
-39.967
-40.255
-40.606
-41.019
-41.488
-42.012
-42.586
-43.206
-43.868
-44.568
-45.302
-46.065
-46.854
-47.664
-48.492
-49.335
-50.189
-51.052
-51.92
-52.792
-53.665
-54.536
-55.404
-56.267
-57.123
-57.971
-58.808
-59.634
-60.447
-61.246
-62.029
-62.796
-63.544
-64.273
-64.981
-65.666
-66.328
-66.964
-67.574
-68.155
-68.707
-69.226
-69.712
-70.163
-70.575
-70.947
-71.275
-71.557
-71.789
-71.968
-72.091
-72.154
-72.154
-72.089
-71.957
-71.753
-71.477
-71.126
-70.698
-70.192
-69.608
-68.944
-68.201
-67.38
-66.481
-65.509
-64.468
-63.363
-62.199
-60.982
-59.719
-58.416
-57.082
-55.723
-54.342
-52.947
-51.544
-50.142
-48.75
-47.377
-46.031
-44.721
-43.456
-42.244
-41.093
-40.006
-38.983
-38.029
-37.147
-36.346
-35.639
-35.039
-34.551
-34.182
-33.935
-33.807
-33.795
-33.886
-34.057
-34.289
-34.565
-34.873
-35.206
-35.56
-35.917
-36.262
-36.568
-36.813
-36.981
-37.071
-37.085
-37.041
-36.972
-36.919
-36.944
-37.115
-37.49
-38.131
-39.092
-40.426
-42.173
-44.386
-47.132
-50.448
-54.31
-58.589
-63.032
-67.34
-71.24
-74.458
-76.671
-77.613
-77.19
-75.632
-73.517
-71.622
-70.621
-70.93
-73.061
-77.566
-84.612
-93.745
-103.056
-109.284
-109.603
-102.627
-89.71
-73.6
-55.777
-35.37
-6.357
37.741
100.323
181.173
270.785
355.954
423.128
459.203
458.076
418.103
342.108
235.764
105.56
-37.588
-180.933
-307.645
-400.901
-453.993
-468.994
-458.054
-437.041
-414.405
-391.192
-363.144
-326.983
-283.902
-239.531
-200.582
-168.405
-142.724
-121.817
-102.629
-86.297
-73.634
-64.162
-58.504
-55.223
-52.499
-49.733
-46.006
-41.012
-35.211
-28.82
-21.963
-15.004
-8.331
-2.384
2.211
5.161
6.617
6.791
5.979
4.518
2.657
0.722
-0.858
-1.832
-2.099
-1.625
-0.479
1.289
3.675
6.616
10.02
13.809
17.883
22.154
26.553
30.979
35.339
39.561
43.575
47.346
50.86
54.108
57.099
59.852
62.387
64.732
66.919
68.976
70.941
72.855
74.763
76.717
78.761
80.926
83.238
85.716
88.367
91.199
94.209
97.388
100.73
104.225
107.867
111.648
115.561
119.591
123.725
127.943
132.229
136.567
140.94
145.329
149.717
154.084
158.412
162.685
166.883
170.984
174.965
178.803
182.473
185.952
189.217
192.244
195.011
197.495
199.679
201.544
203.074
204.252
205.066
205.505
205.557
205.217
204.477
203.336
201.79
199.841
197.493
194.749
191.618
188.108
184.231
180
175.431
170.539
165.346
159.87
154.135
148.165
141.984
135.62
129.1
122.453
115.707
108.891
102.034
95.167
88.317
81.513
74.782
68.151
61.645
55.288
49.103
43.112
37.333
31.784
26.482
21.44
16.67
12.182
7.984
4.083
0.481
-2.818
-5.815
-8.511
-10.912
-13.022
-14.85
-16.406
-17.699
-18.743
-19.552
-20.141
-20.525
-20.722
-20.749
-20.624
-20.367
-19.996
-19.53
-18.988
-18.387
-17.747
-17.083
-16.412
-15.75
-15.111
-14.508
-13.954
-13.458
-13.031
-12.681
-12.415
-12.239
-12.157
-12.172
-12.286
-12.499
-12.811
-13.219
-13.72
-14.311
-14.986
-15.74
-16.566
-17.458
-18.406
-19.404
-20.443
-21.513
-22.607
-23.714
-24.826
-25.935
-27.032
-28.109
-29.161
-30.179
-31.158
-32.092
-32.978
-33.812
-34.59
-35.311
-35.973
-36.575
-37.118
-37.602
-38.029
-38.401
-38.719
-38.988
-39.209
-39.387
-39.524
-39.625
-39.693
-39.733
-39.748
-39.743
-39.722
-39.689
-39.647
-39.6
-39.551
-39.503
-39.458
-39.417
-39.382
-39.353
-39.329
-39.312
-39.3
-39.291
-39.284
-39.276
-39.263
-39.243
-39.213
-39.167
-39.102
-39.015
-38.901
-38.757
-38.58
-38.368
-38.118
-37.828
-37.498
-37.127
-36.713
-36.258
-35.761
-35.223
-34.646
-34.032
-33.384
-32.708
-32.01
-31.296
-30.572
-29.849
-29.133
-28.433
-27.759
-27.117
-26.513
-25.956
-25.452
-25.01
-24.64
-24.347
-24.139
-24.023
-24.004
-24.085
-24.268
-24.552
-24.934
-25.41
-25.981
-26.648
-27.42
-28.305
-29.301
-30.41
-31.628
-32.949
-34.366
-35.865
-37.421
-39.009
-40.607
-42.193
-43.757
-45.278
-46.732
-48.094
-49.322
-50.378
-51.249
-51.93
-52.417
-52.723
-52.857
-52.833
-52.717
-52.577
-52.485
-52.527
-52.765
-53.246
-54.049
-55.279
-57
-59.218
-61.801
-64.467
-66.933
-68.97
-70.354
-70.817
-70.139
-68.276
-65.547
-62.655
-60.463
-59.634
-60.576
-63.798
-69.733
-78.387
-89.13
-99.766
-106.873
-107.767
-100.98
-87.554
-70.048
-49.29
-24.202
10.201
59.313
124.987
205.963
294.077
378.211
446.884
487.807
492.5
455.91
378.063
264.71
125.772
-25.325
-174.431
-307.468
-412.718
-482.573
-515.053
-513.483
-484.875
-439.329
-385.997
-333.749
-289.173
-253.412
-225.106
-199.488
-172.424
-144.072
-116.663
-94.354
-79.827
-72.604
-70.858
-71.767
-73.085
-73.638
-72.553
-69.599
-64.951
-58.849
-51.755
-44.196
-36.69
-29.884
-24.483
-20.821
-18.85
-18.329
-18.852
-20.064
-21.713
-23.464
-24.91
-25.776
-25.926
-25.325
-24.056
-22.181
-19.723
-16.737
-13.308
-9.537
-5.539
-1.426
2.704
6.772
10.719
14.486
18.018
21.276
24.236
26.896
29.279
31.402
33.278
34.926
36.37
37.653
38.827
39.945
41.065
42.232
43.478
44.837
46.336
47.995
49.826
51.835
54.016
56.369
58.897
61.601
64.482
67.536
70.752
74.123
77.637
81.284
85.05
88.922
92.885
96.926
101.03
105.182
109.368
113.571
117.77
121.945
126.073
130.132
134.098
137.946
141.653
145.194
148.546
151.688
154.597
157.253
159.637
161.731
163.517
164.981
166.109
166.887
167.306
167.357
167.032
166.328
165.24
163.768
161.914
159.68
157.072
154.098
150.765
147.086
143.074
138.744
134.112
129.196
124.016
118.594
112.951
107.112
101.1
94.941
88.66
82.283
75.835
69.341
62.828
56.32
49.841
43.414
37.062
30.808
24.671
18.673
12.83
7.161
1.681
-3.595
-8.655
-13.488
-18.084
-22.434
-26.534
-30.377
-33.962
-37.286
-40.35
-43.155
-45.704
-48.003
-50.057
-51.874
-53.463
-54.832
-55.994
-56.959
-57.739
-58.347
-58.797
-59.101
-59.273
-59.327
-59.276
-59.133
-58.912
-58.626
-58.287
-57.907
-57.497
-57.07
-56.634
-56.2
-55.775
-55.369
-54.988
-54.639
-54.328
-54.059
-53.836
-53.663
-53.543
-53.476
-53.463
-53.504
-53.599
-53.746
-53.941
-54.184
-54.469
-54.794
-55.154
-55.545
-55.963
-56.402
-56.857
-57.325
-57.799
-58.276
-58.751
-59.22
-59.678
-60.122
-60.548
-60.953
-61.334
-61.688
-62.013
-62.306
-62.566
-62.79
-62.978
-63.129
-63.241
-63.313
-63.346
-63.338
-63.291
-63.205
-63.081
-62.919
-62.721
-62.488
-62.223
-61.926
-61.6
-61.246
-60.867
-60.462
-60.034
-59.583
-59.11
-58.616
-58.101
-57.566
-57.011
-56.436
-55.841
-55.225
-54.588
-53.93
-53.249
-52.546
-51.821
-51.072
-50.299
-49.504
-48.687
-47.848
-46.989
-46.11
-45.213
-44.3
-43.37
-42.427
-41.471
-40.505
-39.531
-38.551
-37.57
-36.591
-35.621
-34.665
-33.73
-32.822
-31.949
-31.117
-30.334
-29.604
-28.932
-28.323
-27.78
-27.31
-26.917
-26.606
-26.382
-26.248
-26.207
-26.259
-26.406
-26.645
-26.969
-27.374
-27.853
-28.405
-29.038
-29.754
-30.554
-31.437
-32.397
-33.425
-34.513
-35.641
-36.78
-37.906
-38.989
-40.004
-40.943
-41.787
-42.522
-43.134
-43.585
-43.847
-43.91
-43.762
-43.412
-42.885
-42.202
-41.408
-40.57
-39.749
-39.03
-38.497
-38.206
-38.215
-38.544
-39.213
-40.32
-41.934
-44.024
-46.468
-49.009
-51.351
-53.318
-54.691
-55.07
-54.14
-51.746
-48.072
-43.743
-39.388
-35.614
-33.116
-32.711
-35.356
-40.634
-46.34
-50.264
-49.95
-46.048
-43.028
-41.633
-40.338
-32.978
-6.868
43.442
117.993
211.91
311.153
405.2
484.378
537.717
557.944
536.239
468.235
356.669
210.336
46.243
-116.762
-259.67
-367.217
-433.424
-460.352
-458.202
-440.512
-417.346
-392.789
-365.48
-332.002
-290.516
-243.086
-193.876
-147.121
-106.395
-73.217
-47.901
-30.162
-19.037
-13.436
-12.239
-14.109
-17.524
-20.984
-23.114
-23.173
-21.099
-17.108
-11.605
-5.106
1.745
8.14
13.246
16.66
18.443
18.843
18.207
16.846
15.041
13.192
11.762
11.034
11.093
11.911
13.375
15.402
17.957
20.957
24.268
27.762
31.309
34.796
38.17
41.388
44.396
47.145
49.592
51.712
53.512
55.021
56.26
57.252
58.023
58.606
59.054
59.429
59.796
60.221
60.755
61.44
62.312
63.4
64.731
66.325
68.197
70.353
72.8
75.543
78.585
81.922
85.538
89.41
93.501
97.767
102.181
106.715
111.354
116.094
120.926
125.843
130.843
135.909
141.028
146.189
151.367
156.543
161.716
166.891
172.096
177.372
182.725
188.146
193.612
199.067
204.452
209.698
214.709
219.411
223.739
227.63
231.044
233.943
236.266
237.946
238.897
239.015
238.237
236.529
233.871
230.289
225.827
220.551
214.576
208.003
200.91
193.377
185.455
177.196
168.675
159.969
151.165
142.374
133.681
125.155
116.862
108.835
101.089
93.62
86.385
79.348
72.496
65.822
59.334
53.049
46.97
41.1
35.447
30.003
24.761
19.721
14.872
10.218
5.774
1.557
-2.399
-6.062
-9.417
-12.454
-15.173
-17.579
-19.68
-21.486
-23.018
-24.292
-25.321
-26.12
-26.701
-27.077
-27.268
-27.294
-27.178
-26.943
-26.61
-26.199
-25.73
-25.219
-24.681
-24.13
-23.577
-23.031
-22.503
-22.004
-21.545
-21.136
-20.786
-20.503
-20.294
-20.167
-20.126
-20.174
-20.314
-20.547
-20.874
-21.293
-21.804
-22.405
-23.093
-23.864
-24.716
-25.644
-26.643
-27.709
-28.837
-30.02
-31.253
-32.531
-33.847
-35.197
-36.574
-37.973
-39.389
-40.816
-42.25
-43.685
-45.117
-46.542
-47.955
-49.351
-50.727
-52.079
-53.403
-54.696
-55.954
-57.177
-58.36
-59.503
-60.603
-61.658
-62.668
-63.63
-64.542
-65.404
-66.214
-66.97
-67.669
-68.311
-68.893
-69.415
-69.873
-70.266
-70.593
-70.851
-71.04
-71.156
-71.198
-71.163
-71.049
-70.856
-70.579
-70.219
-69.773
-69.24
-68.619
-67.909
-67.111
-66.223
-65.247
-64.181
-63.029
-61.79
-60.469
-59.066
-57.586
-56.033
-54.412
-52.732
-51
-49.225
-47.414
-45.579
-43.728
-41.872
-40.021
-38.184
-36.368
-34.585
-32.844
-31.157
-29.537
-27.992
-26.535
-25.175
-23.924
-22.789
-21.778
-20.89
-20.129
-19.5
-19.009
-18.668
-18.486
-18.466
-18.613
-18.929
-19.41
-20.048
-20.827
-21.721
-22.705
-23.759
-24.869
-26.025
-27.215
-28.421
-29.623
-30.795
-31.918
-32.976
-33.952
-34.838
-35.65
-36.414
-37.186
-38.038
-39.02
-40.185
-41.59
-43.284
-45.331
-47.776
-50.636
-53.943
-57.758
-62.12
-67.007
-72.265
-77.609
-82.743
-87.396
-91.272
-94.005
-95.246
-94.863
-93.142
-90.636
-87.937
-85.64
-84.297
-84.634
-87.546
-92.651
-97.973
-101.695
-101.847
-98.902
-96.252
-93.928
-89.47
-76.973
-47.051
3.574
72.221
152.136
232.557
306.498
370.729
421.263
454.138
461.899
435.015
369.186
264.656
128.77
-23.738
-176.985
-314.07
-420.838
-489.829
-519.984
-516.32
-487.835
-445.191
-396.989
-350.811
-311.754
-279.359
-251.542
-223.516
-190.765
-154.225
-117.077
-83.853
-58.411
-40.993
-29.848
-23.08
-19.31
-17.536
-17.118
-17.25
-16.732
-15.023
-12.152
-8.088
-3.044
2.526
8.263
13.541
17.602
20.216
21.445
21.438
20.535
19.053
17.26
15.551
14.329
13.801
14.046
15.051
16.715
18.97
21.754
24.968
28.504
32.258
36.138
40.067
43.967
47.763
51.385
54.773
57.893
60.731
63.283
65.565
67.6
69.417
71.053
72.549
73.936
75.258
76.556
77.878
79.277
80.797
82.472
84.329
86.389
88.664
91.164
93.89
96.835
99.992
103.353
106.911
110.661
114.593
118.693
122.946
127.334
131.839
136.442
141.126
145.869
150.651
155.45
160.245
165.015
169.736
174.384
178.932
183.352
187.618
191.701
195.575
199.213
202.589
205.678
208.457
210.905
213.001
214.728
216.067
217.005
217.528
217.625
217.289
216.514
215.294
213.63
211.523
208.976
205.996
202.591
198.772
194.552
189.947
184.974
179.653
174.006
168.055
161.825
155.343
148.637
141.733
134.662
127.452
120.135
112.74
105.297
97.835
90.384
82.971
75.624
68.37
61.234
54.239
47.41
40.766
34.328
28.113
22.138
16.416
10.959
5.778
0.88
-3.728
-8.041
-12.059
-15.781
-19.208
-22.344
-25.194
-27.765
-30.065
-32.103
-33.891
-35.439
-36.761
-37.869
-38.778
-39.501
-40.053
-40.449
-40.703
-40.831
-40.847
-40.765
-40.599
-40.364
-40.072
-39.735
-39.367
-38.977
-38.575
-38.173
-37.777
-37.396
-37.036
-36.703
-36.402
-36.136
-35.907
-35.719
-35.572
-35.466
-35.402
-35.378
-35.394
-35.448
-35.538
-35.662
-35.819
-36.007
-36.223
-36.466
-36.734
-37.025
-37.338
-37.67
-38.023
-38.393
-38.78
-39.183
-39.603
-40.038
-40.488
-40.953
-41.433
-41.929
-42.44
-42.967
-43.51
-44.071
-44.65
-45.249
-45.868
-46.508
-47.171
-47.856
-48.564
-49.295
-50.047
-50.819
-51.608
-52.413
-53.23
-54.055
-54.884
-55.713
-56.536
-57.349
-58.144
-58.916
-59.658
-60.364
-61.027
-61.64
-62.197
-62.692
-63.12
-63.476
-63.755
-63.953
-64.066
-64.09
-64.023
-63.863
-63.606
-63.252
-62.799
-62.248
-61.6
-60.859
-60.029
-59.115
-58.127
-57.071
-55.959
-54.799
-53.601
-52.377
-51.134
-49.884
-48.635
-47.399
-46.188
-45.013
-43.887
-42.823
-41.832
-40.923
-40.104
-39.383
-38.764
-38.249
-37.839
-37.539
-37.357
-37.311
-37.416
-37.678
-38.102
-38.688
-39.432
-40.332
-41.37
-42.521
-43.754
-45.041
-46.364
-47.714
-49.083
-50.454
-51.801
-53.078
-54.256
-55.326
-56.289
-57.145
-57.902
-58.568
-59.176
-59.811
-60.566
-61.528
-62.77
-64.336
-66.262
-68.592
-71.415
-74.782
-78.647
-82.864
-87.168
-91.276
-94.997
-98.146
-100.422
-101.566
-101.531
-100.535
-99.223
-98.404
-98.581
-100.053
-103.241
-108.483
-115.744
-124.476
-132.509
-136.489
-133.834
-123.289
-106.372
-86.17
-64.712
-41.822
-12.506
28.867
85.695
158.654
239.649
316.551
376.571
405.817
396.215
345.484
256.24
135.295
-6.636
-155.155
-296.181
-413.136
-492.737
-532.789
-535
-507.061
-462.496
-408.158
-351.893
-305.092
-270.091
-249.063
-239.916
-229.01
-210.058
-181.154
-142.462
-104.576
-73.874
-51.701
-39.666
-33.723
-30.775
-30.17
-30.2
-30.754
-31.694
-32.237
-32.204
-31.265
-29.217
-26.353
-23.046
-19.815
-17.263
-15.613
-14.84
-14.858
-15.454
-16.385
-17.424
-18.263
-18.569
-18.175
-17.049
-15.22
-12.799
-9.889
-6.562
-2.944
0.819
4.615
8.335
11.914
15.321
18.512
21.446
24.103
26.469
28.551
30.372
31.955
33.328
34.528
35.593
36.571
37.513
38.468
39.491
40.626
41.906
43.359
45.008
46.867
48.95
51.261
53.799
56.561
59.546
62.749
66.166
69.789
73.607
77.606
81.77
86.08
90.52
95.074
99.722
104.447
109.227
114.042
118.873
123.697
128.489
133.225
137.874
142.41
146.804
151.028
155.053
158.853
162.399
165.667
168.633
171.273
173.567
175.494
177.035
178.175
178.899
179.195
179.054
178.468
177.431
175.943
174.003
171.614
168.782
165.514
161.819
157.711
153.203
148.313
143.06
137.463
131.546
125.333
118.851
112.127
105.19
98.07
90.797
83.403
75.917
68.373
60.8
53.231
45.694
38.221
30.84
23.579
16.464
9.522
2.777
-3.75
-10.037
-16.065
-21.818
-27.278
-32.433
-37.272
-41.784
-45.962
-49.8
-53.295
-56.444
-59.249
-61.71
-63.832
-65.621
-67.084
-68.229
-69.067
-69.609
-69.867
-69.856
-69.59
-69.085
-68.356
-67.42
-66.295
-64.997
-63.543
-61.951
-60.239
-58.423
-56.521
-54.548
-52.521
-50.456
-48.368
-46.272
-44.181
-42.107
-40.065
-38.064
-36.115
-34.228
-32.412
-30.674
-29.023
-27.463
-26.002
-24.642
-23.389
-22.244
-21.211
-20.291
-19.484
-18.792
-18.213
-17.746
-17.392
-17.148
-17.012
-16.982
-17.055
-17.228
-17.498
-17.86
-18.312
-18.848
-19.463
-20.153
-20.913
-21.737
-22.621
-23.56
-24.546
-25.576
-26.643
-27.742
-28.865
-30.006
-31.159
-32.317
-33.474
-34.622
-35.755
-36.867
-37.951
-39.001
-40.009
-40.97
-41.877
-42.724
-43.502
-44.207
-44.832
-45.371
-45.819
-46.171
-46.421
-46.567
-46.604
-46.531
-46.343
-46.041
-45.621
-45.084
-44.43
-43.659
-42.775
-41.779
-40.675
-39.469
-38.17
-36.783
-35.319
-33.785
-32.191
-30.548
-28.866
-27.156
-25.425
-23.682
-21.939
-20.206
-18.496
-16.821
-15.191
-13.619
-12.118
-10.698
-9.368
-8.136
-7.004
-5.977
-5.061
-4.262
-3.591
-3.06
-2.672
-2.435
-2.352
-2.417
-2.623
-2.955
-3.384
-3.888
-4.447
-5.042
-5.661
-6.29
-6.913
-7.517
-8.085
-8.598
-9.038
-9.394
-9.662
-9.864
-10.031
-10.208
-10.463
-10.847
-11.42
-12.251
-13.392
-14.899
-16.828
-19.197
-22.025
-25.366
-29.226
-33.553
-38.223
-42.946
-47.375
-51.233
-54.201
-55.946
-56.252
-55.018
-52.398
-48.979
-45.546
-42.769
-41.191
-41.363
-43.683
-48.231
-54.664
-61.057
-64.024
-60.852
-50.091
-32.936
-13.245
6.909
29.401
59.964
106.464
173.42
257.038
346.293
426.314
481.991
505.042
492.443
443.867
363.156
252.435
117.391
-28.972
-171.736
-291.074
-371.948
-412.362
-417.951
-402.792
-381.067
-357.67
-332.522
-302.033
-262.296
-214.908
-164.113
-114.105
-69.047
-30.981
-0.379
22.493
38.069
47.382
51.554
51.721
49.318
45.721
42.215
40.113
40.064
42.047
45.841
51.069
57.143
63.498
69.481
74.337
77.785
79.925
80.924
81.093
80.754
80.181
79.746
79.858
80.707
82.333
84.706
87.701
91.233
95.246
99.614
104.196
108.858
113.469
117.959
122.301
126.452
130.363
133.993
137.308
140.305
143.009
145.434
147.598
149.518
151.218
152.742
154.145
155.484
156.816
158.185
159.622
161.16
162.825
164.639
166.616
168.759
171.062
173.529
176.17
178.996
182.01
185.197
188.537
192.01
195.599
199.284
203.041
206.838
210.653
214.474
218.308
222.161
226.03
229.895
233.724
237.481
241.147
244.716
248.186
251.545
254.779
257.882
260.867
263.758
266.553
269.215
271.672
273.853
275.714
277.229
278.391
279.184
279.581
279.546
279.054
278.092
276.645
274.686
272.16
269.005
265.201
260.782
255.824
250.406
244.577
238.373
231.824
224.975
217.877
210.579
203.116
195.511
187.802
180.045
172.323
164.723
157.299
150.063
142.996
136.082
129.327
122.741
116.334
110.103
104.045
98.17
92.504
87.073
81.891
76.956
72.25
67.753
63.461
59.384
55.543
51.95
48.613
45.533
42.716
40.168
37.893
35.881
34.112
32.566
31.228
30.087
29.135
28.362
27.755
27.298
26.975
26.771
26.672
26.664
26.729
26.851
27.016
27.214
27.437
27.677
27.926
28.176
28.419
28.649
28.86
29.048
29.206
29.33
29.415
29.46
29.461
29.419
29.333
29.201
29.025
28.805
28.543
28.24
27.897
27.516
27.099
26.646
26.16
25.641
25.09
24.507
23.894
23.25
22.576
21.87
21.133
20.363
19.562
18.726
17.857
16.953
16.012
15.036
14.022
12.971
11.883
10.756
9.591
8.389
7.148
5.872
4.559
3.213
1.834
0.426
-1.01
-2.47
-3.952
-5.45
-6.961
-8.48
-10.001
-11.518
-13.024
-14.512
-15.975
-17.406
-18.798
-20.143
-21.435
-22.666
-23.831
-24.925
-25.941
-26.875
-27.723
-28.48
-29.144
-29.712
-30.183
-30.556
-30.831
-31.01
-31.097
-31.098
-31.017
-30.862
-30.64
-30.359
-30.03
-29.661
-29.262
-28.84
-28.404
-27.967
-27.538
-27.132
-26.759
-26.434
-26.168
-25.973
-25.86
-25.837
-25.912
-26.086
-26.364
-26.751
-27.253
-27.887
-28.664
-29.592
-30.677
-31.919
-33.313
-34.855
-36.53
-38.312
-40.182
-42.113
-44.087
-46.095
-48.122
-50.154
-52.177
-54.158
-56.06
-57.866
-59.564
-61.159
-62.67
-64.116
-65.525
-66.95
-68.447
-70.089
-71.952
-74.096
-76.574
-79.4
-82.604
-86.286
-90.501
-95.216
-100.281
-105.356
-110.106
-114.333
-117.792
-120.119
-121.071
-120.542
-118.791
-116.676
-115.037
-114.42
-115.441
-118.728
-124.654
-133.348
-143.506
-152.225
-156.884
-155.663
-149.056
-138.782
-124.908
-105.829
-76.639
-32.605
27.863
103.85
188.864
273.854
347.684
397.225
413.258
390.081
329.262
238.694
125.301
-2.733
-137.949
-272.207
-390.993
-480.437
-533.421
-551.136
-544.021
-524.99
-500.467
-469.944
-431.783
-385.912
-336.687
-292.823
-258.659
-233.304
-214.572
-197.997
-181.941
-168.802
-159.486
-154.463
-153.144
-152.73
-151.466
-148.606
-143.809
-137.599
-130.527
-122.894
-115.148
-107.876
-101.674
-97.156
-94.608
-93.938
-94.928
-97.267
-100.638
-104.735
-109.148
-113.412
-117.223
-120.431
-122.99
-124.937
-126.284
-127.015
-127.165
-126.813
-126.043
-124.937
-123.549
-121.925
-120.129
-118.256
-116.425
-114.74
-113.258
-112.003
-110.979
-110.178
-109.609
-109.265
-109.105
-109.06
-109.046
-108.996
-108.872
-108.639
-108.26
-107.678
-106.811
-105.611
-104.101
-102.336
-100.378
-98.242
-95.785
-92.86
-89.47
-85.694
-81.653
-77.386
-72.747
-67.612
-62.408
-57.88
-54.358
-52.053
-50.248
-47.137
-42.671
-37.763
-33.652
-34.322
-40.419
-47.702
-51.19
-40.976
-11.079
33.998
