Name,Waqar Muhammad
Date of Birth,"Jul 5, 1993"
Recorded Date,2023-11-10 17:20:27 -0500
Classification,Sinus Rhythm
Symptoms,
Software Version,1.90
Device,"Watch6,7"
Sample Rate,512 hertz


Lead,Lead I
Unit,µV

290.375
405.424
498.094
550.711
557.414
524.64
464.701
386.804
295.012
193.531
85.852
-19.952
-109.986
-176.716
-217.481
-235.807
-243.102
-246.052
-246.636
-244.207
-234.232
-215.685
-191.138
-163.793
-137.587
-114.669
-95.617
-80.784
-70.149
-63.663
-61.071
-61.638
-64.613
-69.345
-75.017
-80.935
-86.48
-91.004
-94.291
-96.463
-97.653
-98.076
-98.062
-97.875
-97.847
-98.385
-99.581
-101.345
-103.57
-106.063
-108.652
-111.206
-113.504
-115.293
-116.458
-116.965
-116.838
-116.161
-114.982
-113.345
-111.335
-109.059
-106.626
-104.119
-101.583
-99.04
-96.507
-94.011
-91.583
-89.248
-87.007
-84.854
-82.782
-80.782
-78.854
-76.983
-75.143
-73.301
-71.417
-69.461
-67.412
-65.253
-62.968
-60.544
-57.965
-55.222
-52.314
-49.242
-46.003
-42.597
-39.015
-35.254
-31.316
-27.209
-22.943
-18.528
-13.974
-9.294
-4.507
0.361
5.287
10.247
15.225
20.214
25.202
30.174
35.117
40.013
44.855
49.645
54.38
59.058
63.677
68.232
72.736
77.213
81.681
86.158
90.644
95.12
99.571
103.983
108.335
112.607
116.761
120.733
124.478
127.952
131.109
133.909
136.295
138.187
139.519
140.229
140.266
139.615
138.253
136.163
133.346
129.801
125.558
120.679
115.215
109.218
102.751
95.872
88.659
81.221
73.659
66.076
58.584
51.262
44.189
37.446
31.096
25.204
19.815
14.94
10.59
6.775
3.487
0.725
-1.529
-3.324
-4.711
-5.751
-6.525
-7.091
-7.5
-7.811
-8.07
-8.331
-8.639
-9.012
-9.466
-10.016
-10.667
-11.428
-12.307
-13.284
-14.338
-15.441
-16.547
-17.63
-18.668
-19.64
-20.528
-21.314
-21.982
-22.529
-22.962
-23.283
-23.498
-23.609
-23.619
-23.541
-23.391
-23.189
-22.958
-22.714
-22.469
-22.233
-22.016
-21.825
-21.665
-21.537
-21.437
-21.362
-21.311
-21.284
-21.28
-21.298
-21.33
-21.375
-21.426
-21.481
-21.537
-21.591
-21.641
-21.686
-21.725
-21.758
-21.786
-21.81
-21.828
-21.839
-21.844
-21.84
-21.826
-21.803
-21.769
-21.723
-21.664
-21.593
-21.508
-21.411
-21.301
-21.177
-21.04
-20.89
-20.727
-20.553
-20.367
-20.17
-19.964
-19.747
-19.522
-19.289
-19.048
-18.8
-18.545
-18.284
-18.017
-17.744
-17.465
-17.183
-16.896
-16.605
-16.311
-16.015
-15.717
-15.417
-15.116
-14.815
-14.515
-14.216
-13.918
-13.622
-13.33
-13.041
-12.756
-12.475
-12.199
-11.927
-11.661
-11.4
-11.145
-10.895
-10.651
-10.413
-10.181
-9.956
-9.737
-9.525
-9.32
-9.121
-8.929
-8.745
-8.567
-8.398
-8.237
-8.084
-7.941
-7.806
-7.682
-7.567
-7.463
-7.369
-7.285
-7.211
-7.148
-7.096
-7.054
-7.023
-7.003
-6.994
-6.996
-7.009
-7.033
-7.067
-7.112
-7.166
-7.23
-7.304
-7.386
-7.476
-7.574
-7.679
-7.789
-7.904
-8.022
-8.14
-8.258
-8.372
-8.48
-8.579
-8.668
-8.742
-8.801
-8.84
-8.857
-8.85
-8.815
-8.751
-8.654
-8.522
-8.352
-8.142
-7.891
-7.596
-7.255
-6.869
-6.437
-5.959
-5.435
-4.865
-4.249
-3.589
-2.886
-2.14
-1.352
-0.523
0.346
1.252
2.191
3.16
4.155
5.172
6.207
7.253
8.308
9.368
10.432
11.497
12.561
13.619
14.661
15.681
16.675
17.639
18.569
19.465
20.329
21.167
21.995
22.823
23.659
24.506
25.364
26.235
27.12
28.025
28.956
29.916
30.905
31.926
32.974
34.034
35.081
36.068
36.94
37.648
38.15
38.411
38.4
38.081
37.425
36.401
34.996
33.202
30.987
28.35
25.345
22.079
18.755
15.628
12.913
10.812
9.584
9.381
10.199
11.913
14.088
16.16
17.736
18.496
18.03
16.056
12.587
7.904
3.365
1.295
3.534
11.049
23.115
37.146
50.922
64.901
82.74
110.109
151.927
207.6
269.504
325.088
360.88
368.05
344.078
293.287
222.308
136.143
41.881
-54.173
-142.964
-210.835
-251.305
-263.577
-253.771
-235.987
-218.57
-204.022
-191.141
-174.23
-151.4
-124.569
-95.95
-68.431
-43.478
-21.184
-1.775
14.55
27.873
38.443
46.414
51.864
55.061
56.526
57.049
57.582
58.649
60.334
62.721
65.831
69.551
73.67
77.75
81.205
83.753
85.401
86.228
86.427
86.221
85.79
85.411
85.404
85.943
87.09
88.854
91.16
93.949
97.189
100.804
104.71
108.842
113.129
117.513
121.944
126.346
130.655
134.824
138.816
142.614
146.213
149.61
152.812
155.843
158.72
161.466
164.103
166.646
169.119
171.551
173.969
176.407
178.89
181.436
184.059
186.769
189.569
192.463
195.447
198.514
201.657
204.872
208.153
211.498
214.902
218.355
221.849
225.374
228.922
232.482
236.045
239.6
243.135
246.641
250.107
253.522
256.874
260.149
263.334
266.414
269.374
272.201
274.878
277.392
279.729
281.875
283.818
285.546
287.048
288.315
289.338
290.108
290.619
290.865
290.842
290.545
289.974
289.127
288.004
286.609
284.943
283.011
280.819
278.375
275.687
272.765
269.618
266.261
262.704
258.963
255.053
250.988
246.786
242.463
238.036
233.525
228.945
224.316
219.656
214.982
210.312
205.662
201.05
196.491
192.002
187.598
183.291
179.097
175.027
171.093
167.305
163.674
160.207
156.913
153.796
150.861
148.114
145.555
143.188
141.012
139.027
137.232
135.623
134.198
132.952
131.881
130.977
130.234
129.646
129.204
128.899
128.724
128.668
128.723
128.879
129.126
129.455
129.854
130.315
130.828
131.382
131.968
132.577
133.2
133.83
134.457
135.076
135.678
136.258
136.81
137.327
137.806
138.242
138.63
138.968
139.252
139.479
139.648
139.756
139.803
139.787
139.709
139.567
139.362
139.094
138.765
138.375
137.926
137.419
136.857
136.242
135.577
134.864
134.105
133.305
132.465
131.587
130.676
129.732
128.759
127.758
126.733
125.685
124.616
123.528
122.424
121.304
120.172
119.028
117.875
116.713
115.545
114.372
113.194
112.014
110.832
109.65
108.468
107.288
106.108
104.931
103.755
102.58
101.406
100.233
99.06
97.887
96.714
95.539
94.362
93.184
92.005
90.824
89.641
88.457
87.273
86.088
84.903
83.72
82.54
81.363
80.19
79.023
77.864
76.713
75.572
74.443
73.328
72.228
71.147
70.086
69.048
68.037
67.056
66.107
65.195
64.323
63.495
62.713
61.982
61.304
60.683
60.121
59.621
59.184
58.811
58.505
58.265
58.092
57.984
57.94
57.958
58.037
58.173
58.364
58.606
58.896
59.23
59.607
60.021
60.468
60.943
61.44
61.953
62.475
63
63.521
64.03
64.523
64.996
65.444
65.865
66.251
66.594
66.886
67.121
67.294
67.399
67.433
67.396
67.293
67.133
66.923
66.669
66.369
66.02
65.623
65.176
64.681
64.145
63.568
62.955
62.311
61.638
60.929
60.167
59.32
58.348
57.217
55.907
54.404
52.691
50.747
48.555
46.087
43.338
40.301
36.925
33.187
29.131
24.856
20.583
16.597
13.093
10.252
8.341
7.487
7.632
8.556
9.643
10.122
9.51
7.453
3.435
-2.852
-11.172
-21.039
-30.804
-37.65
-40.141
-37.691
-30.016
-19.267
-6.124
11.522
35.078
68.163
113.301
166.906
222.714
270.376
297.573
297.683
269.771
218.346
152.472
78.686
-0.187
-81.574
-162.738
-236.767
-292.758
-323.8
-328.483
-311.256
-283.358
-254.395
-229.332
-210.874
-195.931
-179.909
-161.152
-138.02
-111.971
-87.11
-65.355
-47.904
-34.918
-24.745
-16.63
-10.641
-6.599
-4.278
-3.275
-2.847
-2.359
-1.659
-0.662
0.781
2.623
4.695
6.798
8.564
9.615
9.882
9.407
8.282
6.728
4.941
3.088
1.406
0.113
-0.684
-0.943
-0.678
0.035
1.144
2.6
4.333
6.28
8.373
10.551
12.756
14.924
17.003
18.957
20.755
22.384
23.841
25.126
26.254
27.252
28.146
28.963
29.728
30.461
31.188
31.94
32.748
33.648
34.667
35.824
37.133
38.606
40.249
42.065
44.053
46.202
48.506
50.96
53.555
56.289
59.152
62.134
65.222
68.405
71.669
75
78.386
81.812
85.261
88.72
92.174
95.608
99.006
102.35
105.624
108.807
111.881
114.829
117.631
120.268
122.724
124.98
127.022
128.833
130.401
131.712
132.753
133.513
133.985
134.158
134.027
133.587
132.833
131.764
130.38
128.682
126.674
124.36
121.745
118.839
115.649
112.187
108.464
104.493
100.29
95.869
91.247
86.443
81.474
76.361
71.122
65.779
60.352
54.863
49.332
43.779
38.227
32.695
27.203
21.771
16.418
11.162
6.02
1.008
-3.858
-8.565
-13.1
-17.451
-21.609
-25.565
-29.311
-32.841
-36.151
-39.237
-42.096
-44.729
-47.136
-49.318
-51.279
-53.023
-54.555
-55.881
-57.01
-57.948
-58.706
-59.292
-59.717
-59.992
-60.128
-60.137
-60.029
-59.819
-59.517
-59.136
-58.687
-58.183
-57.634
-57.052
-56.446
-55.826
-55.201
-54.579
-53.969
-53.378
-52.812
-52.277
-51.777
-51.318
-50.902
-50.533
-50.212
-49.941
-49.72
-49.55
-49.429
-49.357
-49.333
-49.353
-49.416
-49.518
-49.656
-49.827
-50.026
-50.25
-50.494
-50.753
-51.024
-51.302
-51.582
-51.861
-52.134
-52.398
-52.65
-52.885
-53.101
-53.296
-53.466
-53.609
-53.724
-53.81
-53.864
-53.886
-53.876
-53.833
-53.757
-53.65
-53.512
-53.344
-53.149
-52.928
-52.683
-52.416
-52.131
-51.83
-51.515
-51.189
-50.856
-50.518
-50.178
-49.839
-49.505
-49.18
-48.866
-48.566
-48.284
-48.022
-47.782
-47.567
-47.38
-47.222
-47.095
-47.001
-46.942
-46.918
-46.932
-46.983
-47.072
-47.198
-47.361
-47.558
-47.788
-48.047
-48.333
-48.643
-48.973
-49.32
-49.682
-50.056
-50.438
-50.828
-51.221
-51.613
-51.998
-52.37
-52.723
-53.049
-53.342
-53.594
-53.798
-53.951
-54.047
-54.084
-54.058
-53.965
-53.799
-53.552
-53.219
-52.797
-52.287
-51.689
-51.012
-50.265
-49.464
-48.629
-47.772
-46.899
-46.015
-45.117
-44.199
-43.259
-42.289
-41.291
-40.267
-39.214
-38.131
-37.015
-35.852
-34.621
-33.297
-31.838
-30.224
-28.448
-26.499
-24.394
-22.15
-19.786
-17.343
-14.856
-12.342
-9.833
-7.347
-4.892
-2.524
-0.304
1.763
3.634
5.293
6.753
7.927
8.739
9.224
9.405
9.209
8.593
7.444
5.622
3.28
0.589
-2.441
-5.768
-9.274
-12.875
-16.348
-19.436
-22.298
-25.166
-28.072
-31.046
-34.048
-36.907
-39.598
-42.164
-44.273
-45.511
-45.673
-44.651
-42.572
-39.814
-36.822
-34.11
-32.279
-32.04
-33.393
-35.416
-37.89
-40.71
-44.201
-50.079
-56.631
-59.213
-53.444
-33.74
-0.093
40.909
83.56
121.57
152.879
182.393
211.993
240.736
264.653
272.475
255.037
208.301
130.55
29.577
-81.19
-188.175
-274.763
-330.78
-356.449
-357.225
-345.107
-331.265
-318.951
-307.268
-292.395
-270.483
-242.081
-210.111
-177.494
-146.785
-119.343
-95.579
-75.795
-60.246
-48.754
-40.772
-35.931
-33.8
-33.611
-34.635
-36.042
-36.95
-37.051
-36.413
-35.068
-33.196
-31.108
-29.062
-27.467
-26.777
-27.095
-28.331
-30.327
-32.784
-35.442
-38.098
-40.49
-42.374
-43.636
-44.225
-44.159
-43.524
-42.381
-40.792
-38.837
-36.588
-34.123
-31.513
-28.822
-26.125
-23.48
-20.928
-18.501
-16.214
-14.07
-12.072
-10.207
-8.45
-6.774
-5.154
-3.564
-1.983
-0.385
1.262
2.99
4.835
6.825
8.974
11.296
13.797
16.481
19.348
22.391
25.597
28.954
32.453
36.084
39.839
43.705
47.669
51.714
55.826
59.987
64.183
68.398
72.614
76.816
80.986
85.11
89.173
93.158
97.049
100.827
104.475
107.976
111.313
114.47
117.43
120.179
122.701
124.985
127.019
128.791
130.294
131.517
132.455
133.102
133.455
133.509
133.264
132.72
131.879
130.743
129.319
127.61
125.625
123.373
120.863
118.106
115.114
111.901
108.481
104.867
101.076
97.125
93.028
88.805
84.472
80.046
75.548
70.993
66.4
61.786
57.169
52.566
47.992
43.463
38.994
34.6
30.293
26.087
21.993
18.022
14.184
10.486
6.938
3.544
0.31
-2.759
-5.66
-8.391
-10.951
-13.339
-15.557
-17.605
-19.487
-21.205
-22.763
-24.167
-25.422
-26.534
-27.51
-28.356
-29.082
-29.694
-30.201
-30.61
-30.932
-31.173
-31.343
-31.45
-31.502
-31.508
-31.475
-31.411
-31.323
-31.218
-31.102
-30.981
-30.861
-30.745
-30.64
-30.548
-30.474
-30.42
-30.389
-30.385
-30.407
-30.458
-30.538
-30.648
-30.788
-30.957
-31.155
-31.38
-31.631
-31.907
-32.206
-32.526
-32.864
-33.22
-33.59
-33.972
-34.365
-34.765
-35.172
-35.583
-35.996
-36.41
-36.823
-37.235
-37.644
-38.048
-38.448
-38.843
-39.231
-39.613
-39.987
-40.354
-40.713
-41.065
-41.409
-41.745
-42.075
-42.397
-42.714
-43.024
-43.329
-43.628
-43.922
-44.21
-44.493
-44.771
-45.043
-45.31
-45.569
-45.822
-46.066
-46.3
-46.523
-46.732
-46.925
-47.1
-47.254
-47.385
-47.49
-47.566
-47.611
-47.621
-47.594
-47.528
-47.419
-47.265
-47.063
-46.811
-46.507
-46.148
-45.735
-45.264
-44.737
-44.152
-43.511
-42.814
-42.062
-41.255
-40.395
-39.485
-38.527
-37.524
-36.477
-35.39
-34.269
-33.12
-31.946
-30.754
-29.549
-28.336
-27.124
-25.919
-24.727
-23.553
-22.4
-21.274
-20.182
-19.135
-18.137
-17.19
-16.296
-15.457
-14.673
-13.947
-13.274
-12.641
-12.038
-11.455
-10.89
-10.344
-9.814
-9.292
-8.773
-8.245
-7.709
-7.175
-6.647
-6.13
-5.635
-5.176
-4.784
-4.515
-4.419
-4.543
-4.931
-5.606
-6.59
-7.913
-9.599
-11.661
-14.101
-16.891
-19.991
-23.408
-27.157
-31.189
-35.416
-39.662
-43.658
-47.183
-50.055
-51.982
-52.673
-52.049
-50.061
-46.877
-43.096
-39.287
-36.028
-34.288
-34.32
-35.081
-35.75
-35.214
-33.429
-33.686
-38.165
-46.319
-54.754
-54.306
-36.274
2.559
61.073
130.53
199.268
258.088
298.349
316.193
309.447
275.365
214.441
126.466
16.596
-102.628
-216.924
-308.193
-364.575
-386.242
-380.108
-359.979
-338.009
-317.763
-298.324
-275.745
-246.594
-212.063
-175.385
-139.973
-108.905
-83.458
-63.761
-49.519
-40.022
-34.464
-32.066
-31.992
-33.236
-34.734
-35.514
-35.006
-33.115
-29.998
-25.947
-21.322
-16.553
-12.18
-8.787
-6.68
-5.86
-6.177
-7.366
-9.135
-11.227
-13.329
-15.102
-16.347
-16.989
-17.014
-16.485
-15.457
-13.963
-12.072
-9.867
-7.416
-4.787
-2.044
0.762
3.555
6.263
8.837
11.236
13.439
15.442
17.245
18.856
20.296
21.591
22.766
23.85
24.866
25.847
26.826
27.841
28.933
30.135
31.473
32.967
34.63
36.471
38.495
40.7
43.082
45.634
48.35
51.226
54.255
57.431
60.745
64.184
67.738
71.393
75.137
78.956
82.837
86.766
90.725
94.698
98.668
102.616
106.525
110.374
114.144
117.812
121.359
124.764
128.009
131.075
133.942
136.585
138.984
141.12
142.983
144.568
145.867
146.874
147.583
147.994
148.111
147.934
147.459
146.671
145.557
144.114
142.345
140.266
137.89
135.226
132.273
129.029
125.502
121.7
117.627
113.28
108.649
103.74
98.586
93.239
87.752
82.164
76.504
70.791
65.047
59.305
53.604
47.977
42.449
37.048
31.808
26.784
22.032
17.585
13.442
9.576
5.96
2.584
-0.555
-3.456
-6.128
-8.583
-10.834
-12.884
-14.733
-16.386
-17.865
-19.207
-20.452
-21.622
-22.716
-23.714
-24.6
-25.372
-26.032
-26.582
-27.02
-27.342
-27.556
-27.677
-27.724
-27.709
-27.635
-27.495
-27.284
-27.005
-26.671
-26.302
-25.913
-25.517
-25.124
-24.744
-24.393
-24.081
-23.811
-23.582
-23.39
-23.236
-23.121
-23.051
-23.028
-23.05
-23.118
-23.227
-23.375
-23.561
-23.78
-24.027
-24.297
-24.586
-24.889
-25.205
-25.533
-25.868
-26.207
-26.547
-26.886
-27.22
-27.547
-27.864
-28.168
-28.457
-28.728
-28.982
-29.215
-29.428
-29.62
-29.79
-29.939
-30.067
-30.174
-30.263
-30.333
-30.388
-30.429
-30.457
-30.476
-30.486
-30.49
-30.491
-30.491
-30.493
-30.499
-30.512
-30.537
-30.574
-30.628
-30.701
-30.796
-30.913
-31.055
-31.224
-31.421
-31.647
-31.903
-32.19
-32.507
-32.856
-33.236
-33.646
-34.085
-34.551
-35.041
-35.554
-36.084
-36.627
-37.181
-37.74
-38.299
-38.856
-39.406
-39.945
-40.47
-40.977
-41.459
-41.912
-42.33
-42.703
-43.026
-43.289
-43.486
-43.61
-43.656
-43.619
-43.495
-43.282
-42.979
-42.583
-42.09
-41.492
-40.786
-39.972
-39.051
-38.028
-36.915
-35.723
-34.468
-33.168
-31.835
-30.48
-29.105
-27.708
-26.282
-24.822
-23.328
-21.811
-20.278
-18.73
-17.17
-15.594
-13.995
-12.36
-10.669
-8.891
-7.003
-4.996
-2.874
-0.661
1.617
3.932
6.264
8.601
10.926
13.219
15.459
17.629
19.709
21.678
23.491
25.084
26.4
27.402
28.077
28.426
28.447
28.133
27.469
26.448
25.076
23.361
21.307
18.906
16.147
13.028
9.573
5.835
1.879
-2.25
-6.54
-10.949
-15.391
-19.72
-23.708
-27.133
-29.842
-31.682
-32.478
-32.101
-30.493
-27.777
-24.376
-20.848
-17.668
-15.16
-13.651
-13.489
-14.9
-17.789
-20.911
-22.023
-19.301
-11.918
-1.33
9.798
20.339
31.218
47.05
72.994
111.33
161.418
216.674
268.129
307.193
325.602
318.862
285.138
225.006
141.201
39.523
-70.016
-175.337
-261.629
-317.996
-342.71
-340.472
-322.947
-301.852
-281.867
-263.37
-243.238
-217.835
-187.727
-155.53
-124.064
-96.182
-72.919
-54.088
-39.489
-28.547
-20.523
-14.867
-11.069
-8.456
-6.498
-4.713
-2.507
0.331
3.687
7.441
11.397
15.268
18.848
21.862
23.925
24.926
24.953
24.134
22.706
20.924
18.993
17.171
15.741
14.852
14.563
14.891
15.782
17.195
19.1
21.428
24.094
27.031
30.171
33.46
36.85
40.271
43.64
46.898
49.999
52.918
55.649
58.184
60.522
62.677
64.669
66.523
68.266
69.918
71.499
73.032
74.544
76.064
77.624
79.247
80.948
82.737
84.618
86.594
88.664
90.823
93.061
95.368
97.738
100.163
102.639
105.157
107.707
110.279
112.862
115.445
118.018
120.57
123.09
125.566
127.989
130.348
132.634
134.835
136.94
138.936
140.811
142.551
144.145
145.581
146.846
147.928
148.819
149.507
149.985
150.244
150.278
150.08
149.646
148.97
148.051
146.885
145.471
143.811
141.905
139.755
137.365
134.74
131.886
128.81
125.52
122.024
118.332
114.455
110.406
106.195
101.836
97.344
92.733
88.017
83.213
78.335
73.401
68.427
63.428
58.421
53.421
48.445
43.508
38.625
33.81
29.078
24.442
19.916
15.511
11.238
7.109
3.133
-0.682
-4.328
-7.798
-11.086
-14.189
-17.1
-19.82
-22.344
-24.673
-26.807
-28.747
-30.495
-32.053
-33.427
-34.62
-35.637
-36.486
-37.172
-37.703
-38.087
-38.332
-38.447
-38.441
-38.324
-38.107
-37.798
-37.408
-36.948
-36.427
-35.856
-35.245
-34.603
-33.94
-33.265
-32.588
-31.916
-31.258
-30.62
-30.011
-29.437
-28.904
-28.418
-27.983
-27.605
-27.288
-27.035
-26.85
-26.735
-26.692
-26.723
-26.829
-27.01
-27.267
-27.598
-28.002
-28.478
-29.023
-29.636
-30.313
-31.05
-31.845
-32.692
-33.588
-34.527
-35.505
-36.517
-37.557
-38.62
-39.701
-40.794
-41.895
-42.998
-44.097
-45.188
-46.266
-47.325
-48.36
-49.367
-50.34
-51.277
-52.171
-53.021
-53.821
-54.571
-55.267
-55.91
-56.497
-57.028
-57.502
-57.921
-58.285
-58.593
-58.847
-59.046
-59.193
-59.29
-59.339
-59.344
-59.307
-59.233
-59.127
-58.994
-58.838
-58.663
-58.468
-58.259
-58.037
-57.809
-57.584
-57.368
-57.166
-56.983
-56.825
-56.694
-56.589
-56.5
-56.413
-56.313
-56.191
-56.039
-55.858
-55.641
-55.386
-55.087
-54.738
-54.339
-53.895
-53.404
-52.874
-52.319
-51.768
-51.278
-50.921
-50.76
-50.854
-51.24
-51.953
-53.048
-54.559
-56.509
-58.918
-61.76
-65.044
-68.83
-73.088
-77.712
-82.548
-87.313
-91.73
-95.613
-98.662
-100.531
-101.111
-100.446
-98.768
-96.547
-94.293
-92.528
-91.803
-92.714
-94.912
-97.036
-98.478
-98.842
-98.435
-98.82
-98.002
-91.313
-75.6
-48.168
-10.879
29.577
70.383
111.5
151.795
190.749
221.478
230.472
210.456
159.426
81.354
-10.314
-104.689
-193.863
-268.599
-324.15
-358.196
-370.29
-366.453
-354.845
-340.433
-325.713
-309.768
-289.598
-264.982
-237.59
-209.365
-182.482
-157.776
-135.274
-115.021
-97.057
-81.603
-68.744
-58.468
-50.935
-46.217
-44.171
-44.581
-46.82
-49.901
-53.109
-55.987
-58.124
-59.274
-59.21
-57.673
-54.844
-51.379
-47.891
-44.731
-42.047
-39.819
-38.112
-37.141
-36.891
-37.014
-37.068
-36.74
-35.908
-34.603
-32.846
-30.546
-27.669
-24.328
-20.722
-17.045
-13.423
-9.898
-6.477
-3.194
-0.087
2.834
5.58
8.182
10.673
13.073
15.386
17.621
19.792
21.92
24.035
26.166
28.342
30.584
32.905
35.316
37.823
40.432
43.145
45.961
48.868
51.858
54.926
58.066
61.272
64.536
67.844
71.183
74.54
77.901
81.256
84.594
87.9
91.162
94.368
97.505
100.563
103.528
106.388
109.127
111.732
114.188
116.483
118.605
120.539
122.274
123.8
125.105
126.183
127.024
127.623
127.971
128.066
127.904
127.483
126.802
125.861
124.662
123.208
121.504
119.556
117.37
114.954
112.318
109.47
106.423
103.188
99.778
96.206
92.486
88.635
84.667
80.598
76.445
72.225
67.955
63.652
59.333
55.014
50.713
46.446
42.228
38.076
34.002
30.023
26.151
22.398
18.777
15.297
11.969
8.802
5.802
2.976
0.331
-2.129
-4.401
-6.482
-8.369
-10.063
-11.562
-12.869
-13.985
-14.913
-15.656
-16.22
-16.61
-16.831
-16.891
-16.798
-16.558
-16.182
-15.678
-15.055
-14.324
-13.496
-12.579
-11.586
-10.526
-9.41
-8.248
-7.052
-5.829
-4.592
-3.347
-2.106
-0.876
0.333
1.515
2.661
3.764
4.817
5.813
6.748
7.615
8.409
9.126
9.763
10.316
10.782
11.16
11.449
11.648
11.758
11.778
11.711
11.559
11.324
11.009
10.619
10.158
9.629
9.039
8.392
7.695
6.952
6.17
5.355
4.514
3.651
2.775
1.892
1.008
0.13
-0.735
-1.581
-2.399
-3.184
-3.93
-4.629
-5.276
-5.865
-6.391
-6.85
-7.237
-7.549
-7.783
-7.936
-8.008
-7.997
-7.904
-7.728
-7.472
-7.138
-6.728
-6.246
-5.698
-5.087
-4.418
-3.697
-2.93
-2.123
-1.283
-0.414
0.477
1.383
2.296
3.208
4.11
4.995
5.855
6.679
7.459
8.185
8.853
9.457
9.993
10.454
10.835
11.13
11.333
11.447
11.469
11.397
11.235
10.984
10.655
10.266
9.829
9.352
8.842
8.303
7.74
7.165
6.581
5.992
5.398
4.794
4.183
3.57
2.944
2.287
1.576
0.767
-0.169
-1.254
-2.516
-3.961
-5.604
-7.472
-9.565
-11.88
-14.423
-17.169
-20.12
-23.308
-26.686
-30.16
-33.589
-36.723
-39.345
-41.321
-42.431
-42.449
-41.323
-39.104
-36.083
-32.855
-29.924
-27.677
-26.589
-27.062
-29.187
-32.765
-37.097
-41.006
-43.274
-42.642
-37.767
-27.24
-10.728
10.512
34.919
60.59
87.138
116.965
150.626
185.081
214.47
228.851
219.691
185.419
127.486
50.881
-34.904
-122.487
-202.163
-261.484
-295.541
-303.524
-290.863
-270.483
-249.892
-231.898
-216.079
-197.376
-174.134
-148.084
-121.168
-96.395
-75.433
-58.171
-44.46
-33.897
-25.844
-19.875
-15.726
-12.986
-11.155
-9.767
-8.23
-6.213
-3.778
-1.02
2
5.147
8.273
11.132
13.328
14.69
15.292
15.256
14.776
14.029
13.145
12.325
11.826
11.798
12.301
13.341
14.856
16.802
19.152
21.846
24.812
27.974
31.257
34.599
37.942
41.236
44.432
47.487
50.371
53.067
55.568
57.877
60.004
61.96
63.763
65.432
66.987
68.451
69.85
71.212
72.568
73.942
75.353
76.814
78.336
79.925
81.585
83.315
85.11
86.966
88.877
90.841
92.855
94.914
97.011
99.139
101.288
103.45
105.618
107.785
109.941
112.08
114.192
116.27
118.306
120.292
122.218
124.072
125.844
127.521
129.092
130.547
131.872
133.057
134.091
134.964
135.667
136.19
136.526
136.667
136.605
136.336
135.853
135.152
134.232
133.089
131.724
130.136
128.327
126.3
124.058
121.605
118.949
116.094
113.051
109.827
106.432
102.877
99.175
95.338
91.379
87.313
83.154
78.918
74.62
70.277
65.903
61.516
57.132
52.766
48.434
44.152
39.935
35.796
31.75
27.809
23.986
20.292
16.738
13.332
10.084
7
4.088
1.353
-1.201
-3.571
-5.754
-7.749
-9.557
-11.177
-12.613
-13.867
-14.944
-15.849
-16.587
-17.165
-17.591
-17.872
-18.019
-18.04
-17.945
-17.745
-17.45
-17.071
-16.62
-16.105
-15.54
-14.932
-14.294
-13.635
-12.964
-12.291
-11.624
-10.971
-10.341
-9.74
-9.176
-8.654
-8.18
-7.759
-7.395
-7.092
-6.853
-6.68
-6.576
-6.541
-6.577
-6.684
-6.861
-7.107
-7.42
-7.799
-8.241
-8.742
-9.3
-9.911
-10.571
-11.276
-12.022
-12.805
-13.621
-14.466
-15.335
-16.225
-17.13
-18.047
-18.971
-19.899
-20.825
-21.747
-22.66
-23.56
-24.444
-25.309
-26.15
-26.964
-27.748
-28.499
-29.213
-29.887
-30.519
-31.107
-31.647
-32.139
-32.58
-32.968
-33.304
-33.585
-33.812
-33.983
-34.098
-34.157
-34.16
-34.108
-34.001
-33.841
-33.627
-33.364
-33.053
-32.697
-32.3
-31.864
-31.394
-30.893
-30.366
-29.815
-29.244
-28.655
-28.053
-27.442
-26.829
-26.217
-25.612
-25.019
-24.443
-23.888
-23.359
-22.858
-22.385
-21.941
-21.527
-21.15
-20.814
-20.527
-20.29
-20.106
-19.976
-19.899
-19.87
-19.882
-19.923
-19.983
-20.055
-20.136
-20.226
-20.323
-20.424
-20.523
-20.61
-20.677
-20.717
-20.728
-20.71
-20.681
-20.659
-20.671
-20.752
-20.923
-21.211
-21.647
-22.252
-23.058
-24.087
-25.351
-26.879
-28.725
-30.907
-33.392
-36.07
-38.746
-41.239
-43.424
-45.156
-46.242
-46.552
-46.106
-45.129
-44.086
-43.434
-43.418
-44.213
-46.078
-49.173
-53.398
-58.296
-62.882
-66.045
-67.065
-65.234
-59.613
-49.31
-33.48
-12.465
11.709
37.155
62.36
87.773
115.865
146.09
175.208
196.774
201.439
184.88
147.588
92.703
26.346
-46.747
-122.91
-195.023
-253.593
-291.49
-305.448
-299.728
-285.293
-270.033
-257.334
-246.304
-232.04
-212.644
-189.404
-164.32
-140.271
-118.777
-100.138
-84.671
-72.305
-62.736
-55.654
-50.757
-47.735
-46.185
-45.446
-44.705
-43.438
-41.49
-38.91
-35.792
-32.253
-28.45
-24.734
-21.607
-19.34
-17.965
-17.406
-17.482
-18.021
-18.889
-19.85
-20.613
-21.011
-20.963
-20.452
-19.534
-18.241
-16.584
-14.618
-12.41
-10.017
-7.502
-4.903
-2.248
0.408
3.019
5.544
7.947
10.215
12.349
14.345
16.209
17.956
19.598
21.16
22.663
24.126
25.571
27.021
28.501
30.041
31.666
33.391
35.232
37.195
39.284
41.502
43.847
46.312
48.89
51.574
54.357
57.233
60.194
63.23
66.329
69.478
72.663
75.873
79.095
82.315
85.52
88.696
91.831
94.912
97.925
100.855
103.688
106.409
109.002
111.453
113.747
115.871
117.81
119.553
121.087
122.403
123.49
124.34
124.945
125.299
125.394
125.229
124.798
124.1
123.134
121.9
120.401
118.64
116.621
114.349
111.832
109.077
106.093
102.892
99.483
95.88
92.095
88.143
84.038
79.796
75.433
70.965
66.41
61.784
57.106
52.392
47.659
42.926
38.208
33.524
28.888
24.318
19.828
15.434
11.15
6.99
2.967
-0.908
-4.622
-8.167
-11.534
-14.713
-17.699
-20.486
-23.068
-25.443
-27.608
-29.563
-31.307
-32.841
-34.167
-35.29
-36.213
-36.941
-37.481
-37.839
-38.024
-38.044
-37.908
-37.626
-37.208
-36.665
-36.008
-35.249
-34.4
-33.473
-32.48
-31.433
-30.345
-29.227
-28.092
-26.95
-25.813
-24.691
-23.594
-22.531
-21.512
-20.544
-19.636
-18.792
-18.02
-17.324
-16.709
-16.177
-15.732
-15.376
-15.108
-14.931
-14.842
-14.842
-14.928
-15.097
-15.347
-15.674
-16.073
-16.539
-17.067
-17.65
-18.283
-18.959
-19.671
-20.411
-21.173
-21.95
-22.733
-23.517
-24.295
-25.059
-25.802
-26.52
-27.206
-27.854
-28.459
-29.017
-29.524
-29.975
-30.368
-30.7
-30.968
-31.172
-31.309
-31.379
-31.381
-31.316
-31.184
-30.987
-30.726
-30.403
-30.022
-29.584
-29.093
-28.554
-27.97
-27.345
-26.683
-25.99
-25.27
-24.528
-23.769
-22.997
-22.218
-21.437
-20.658
-19.885
-19.125
-18.38
-17.656
-16.956
-16.283
-15.643
-15.037
-14.469
-13.942
-13.459
-13.022
-12.634
-12.296
-12.01
-11.778
-11.601
-11.479
-11.412
-11.402
-11.448
-11.55
-11.707
-11.919
-12.184
-12.502
-12.872
-13.292
-13.759
-14.273
-14.832
-15.432
-16.072
-16.75
-17.462
-18.207
-18.982
-19.783
-20.609
-21.456
-22.322
-23.203
-24.096
-24.997
-25.905
-26.815
-27.725
-28.63
-29.529
-30.418
-31.294
-32.154
-32.995
-33.815
-34.61
-35.378
-36.117
-36.824
-37.497
-38.134
-38.734
-39.295
-39.815
-40.295
-40.732
-41.126
-41.478
-41.787
-42.052
-42.275
-42.455
-42.595
-42.695
-42.756
-42.78
-42.769
-42.725
-42.651
-42.547
-42.418
-42.264
-42.09
-41.897
-41.688
-41.467
-41.237
-40.999
-40.758
-40.516
-40.276
-40.04
-39.81
-39.589
-39.377
-39.176
-38.989
-38.815
-38.655
-38.512
-38.383
-38.271
-38.173
-38.09
-38.019
-37.96
-37.912
-37.87
-37.835
-37.804
-37.773
-37.742
-37.708
-37.667
-37.619
-37.559
-37.486
-37.396
-37.286
-37.155
-37
-36.818
-36.608
-36.369
-36.102
-35.806
-35.482
-35.131
-34.754
-34.352
-33.928
-33.48
-33.011
-32.52
-32.01
-31.483
-30.943
-30.391
-29.833
-29.273
-28.713
-28.157
-27.608
-27.068
-26.534
-26.01
-25.496
-24.997
-24.521
-24.079
-23.675
-23.316
-23.005
-22.741
-22.525
-22.352
-22.21
-22.09
-21.984
-21.884
-21.79
-21.703
-21.618
-21.533
-21.433
-21.303
-21.139
-20.94
-20.714
-20.476
-20.244
-20.038
-19.892
-19.846
-19.946
-20.237
-20.753
-21.525
-22.576
-23.937
-25.678
-27.84
-30.394
-33.239
-36.173
-38.979
-41.502
-43.567
-44.924
-45.414
-45.029
-43.974
-42.808
-42.145
-42.413
-44.014
-47.311
-52.437
-59.267
-67.228
-74.984
-80.997
-83.993
-82.605
-75.555
-61.887
-40.764
-12.848
19.143
52.64
85.263
116.69
149.168
181.831
210.97
229.625
227.973
201.777
152.553
85.154
7.662
-73.174
-152.611
-223.823
-278.759
-312.55
-323.45
-315.509
-298.26
-277.975
-257.514
-237.049
-213.354
-185.831
-156.437
-127.347
-101.502
-80.525
-64.507
-53.183
-45.921
-41.955
-40.626
-41.188
-42.738
-44.383
-45.318
-45.102
-43.663
-41.112
-37.685
-33.665
-29.4
-25.347
-22.016
-19.667
-18.299
-17.799
-17.945
-18.538
-19.41
-20.312
-20.958
-21.173
-20.883
-20.087
-18.848
-17.212
-15.203
-12.875
-10.297
-7.539
-4.67
-1.746
1.183
4.075
6.887
9.579
12.118
14.486
16.67
18.674
20.512
22.199
23.75
25.188
26.526
27.781
28.99
30.189
31.39
32.605
33.843
35.105
36.42
37.828
39.319
40.868
42.548
44.452
46.526
48.775
51.216
53.652
56.605
60.586
64.854
69.181
72.214
72.337
71.326
70.361
71.207
76.287
83.442
90.84
97.22
100.506
102.162
103.669
105.347
108.092
111.362
114.461
117.503
120.387
123.145
125.901
128.55
131.008
133.285
135.373
137.253
138.916
140.358
141.571
142.561
143.337
143.886
144.2
144.275
144.111
143.705
143.06
142.175
141.051
139.693
138.107
136.3
134.278
132.051
129.628
127.019
124.236
121.291
118.197
114.967
111.615
108.155
104.602
100.971
97.276
93.534
89.759
85.967
82.172
78.39
74.634
70.919
67.258
63.664
60.148
56.722
53.397
50.182
47.086
44.117
41.281
38.584
36.032
33.627
31.373
29.271
27.321
25.525
23.88
22.384
21.034
19.827
18.759
17.824
17.016
16.33
15.757
15.292
14.925
14.649
14.455
14.335
14.28
14.281
14.33
14.418
14.536
14.678
14.834
14.999
15.163
15.322
15.47
15.6
15.708
15.79
15.842
15.861
15.844
15.791
15.698
15.567
15.395
15.185
14.935
14.648
14.324
13.966
13.575
13.154
12.706
12.235
11.742
11.232
10.709
10.175
9.634
9.089
8.544
8.002
7.465
6.937
6.42
5.916
5.428
4.956
4.503
4.068
3.653
3.258
2.882
2.525
2.187
1.866
1.561
1.27
0.993
0.728
0.472
0.225
-0.017
-0.255
-0.492
-0.73
-0.97
-1.216
-1.468
-1.73
-2.002
-2.286
-2.582
-2.894
-3.22
-3.562
-3.92
-4.295
-4.686
-5.093
-5.515
-5.95
-6.398
-6.857
-7.324
-7.798
-8.277
-8.757
-9.237
-9.714
-10.187
-10.651
-11.105
-11.547
-11.972
-12.38
-12.767
-13.131
-13.471
-13.784
-14.07
-14.327
-14.554
-14.752
-14.92
-15.057
-15.165
-15.244
-15.294
-15.316
-15.312
-15.284
-15.233
-15.163
-15.076
-14.976
-14.865
-14.748
-14.626
-14.504
-14.385
-14.271
-14.165
-14.071
-13.992
-13.931
-13.89
-13.872
-13.88
-13.915
-13.979
-14.073
-14.196
-14.349
-14.529
-14.735
-14.966
-15.22
-15.496
-15.79
-16.102
-16.429
-16.771
-17.123
-17.482
-17.842
-18.197
-18.539
-18.863
-19.161
-19.424
-19.647
-19.825
-19.952
-20.027
-20.047
-20.006
-19.901
-19.721
-19.464
-19.127
-18.71
-18.213
-17.646
-17.015
-16.339
-15.637
-14.921
-14.199
-13.476
-12.745
-12.003
-11.246
-10.468
-9.67
-8.855
-8.02
-7.168
-6.295
-5.391
-4.441
-3.417
-2.281
-1.011
0.404
1.968
3.661
5.462
7.343
9.268
11.211
13.153
15.068
16.936
18.742
20.452
22.036
23.45
24.631
25.527
26.104
26.331
26.208
25.747
24.954
23.85
22.446
20.737
18.731
16.43
13.829
10.947
7.797
4.389
0.766
-3.041
-7.003
-11.074
-15.247
-19.56
-23.983
-28.437
-32.776
-36.728
-40.033
-42.504
-43.902
-43.965
-42.591
-39.852
-36.101
-32.058
-28.478
-25.975
-25.152
-26.504
-30.186
-35.93
-42.905
-49.624
-54.289
-55.112
-50.361
-38.375
-18.592
8.062
40.122
75.291
112.241
151.67
193.146
234.366
270.044
291.763
291.456
263.888
208.23
126.965
27.074
-80.343
-183.057
-266.58
-320.753
-344.578
-342.867
-326.544
-306.279
-285.971
-266.004
-244.049
-217.4
-187.173
-155.873
-126.097
-100.645
-80.58
-65.736
-55.609
-49.139
-45.241
-43.281
-42.572
-42.218
-41.468
-39.652
-36.457
-32.08
-26.852
-21.035
-14.949
-8.997
-3.619
0.697
3.715
5.511
6.247
6.128
5.361
4.146
2.764
1.534
0.648
0.179
0.133
0.464
1.152
2.195
3.556
5.176
6.997
8.969
11.063
13.257
15.516
17.785
19.993
22.084
24.026
25.806
27.421
28.876
30.169
31.312
32.33
33.251
34.105
34.915
35.7
36.483
37.291
38.155
39.11
40.184
41.395
42.755
44.273
45.956
47.808
49.83
52.012
54.348
56.832
59.458
62.221
65.114
68.124
71.241
74.45
77.737
81.091
84.496
87.936
91.396
94.861
98.315
101.742
105.127
108.453
111.7
114.852
117.89
120.797
123.556
126.15
128.562
130.778
132.783
134.564
136.109
137.409
138.452
139.23
139.737
139.968
139.918
139.584
138.966
138.064
136.88
135.417
133.68
131.676
129.41
126.893
124.133
121.142
117.931
114.513
110.903
107.114
103.161
99.062
94.83
90.484
86.04
81.515
76.926
72.289
67.622
62.94
58.26
53.597
48.967
44.384
39.862
35.413
31.051
26.787
22.63
18.592
14.68
10.903
7.266
3.777
0.441
-2.74
-5.761
-8.621
-11.317
-13.85
-16.219
-18.426
-20.473
-22.362
-24.096
-25.678
-27.114
-28.407
-29.562
-30.585
-31.483
-32.26
-32.923
-33.479
-33.935
-34.297
-34.573
-34.768
-34.89
-34.945
-34.94
-34.88
-34.773
-34.623
-34.437
-34.219
-33.976
-33.712
-33.432
-33.139
-32.838
-32.533
-32.227
-31.923
-31.624
-31.332
-31.05
-30.78
-30.524
-30.284
-30.06
-29.854
-29.667
-29.499
-29.351
-29.223
-29.115
-29.027
-28.959
-28.911
-28.882
-28.872
-28.88
-28.905
-28.947
-29.005
-29.077
-29.164
-29.263
-29.374
-29.495
-29.626
-29.766
-29.914
-30.068
-30.227
-30.391
-30.559
-30.73
-30.902
-31.075
-31.249
-31.421
-31.592
-31.762
-31.929
-32.093
-32.254
-32.412
-32.566
-32.716
-32.861
-33.002
-33.139
-33.271
-33.398
-33.521
-33.64
-33.755
-33.867
-33.975
-34.081
-34.184
-34.286
-34.386
-34.485
-34.583
-34.681
-34.779
-34.878
-34.977
-35.078
-35.18
-35.284
-35.389
-35.496
-35.605
-35.716
-35.829
-35.943
-36.058
-36.174
-36.292
-36.41
-36.529
-36.648
-36.768
-36.888
-37.008
-37.127
-37.246
-37.364
-37.481
-37.596
-37.711
-37.824
-37.936
-38.047
-38.157
-38.267
-38.378
-38.489
-38.601
-38.715
-38.832
-38.952
-39.075
-39.204
-39.339
-39.48
-39.629
-39.787
-39.954
-40.131
-40.319
-40.518
-40.728
-40.95
-41.184
-41.428
-41.683
-41.949
-42.225
-42.509
-42.801
-43.099
-43.402
-43.708
-44.014
-44.318
-44.616
-44.906
-45.183
-45.446
-45.69
-45.911
-46.105
-46.268
-46.397
-46.486
-46.533
-46.533
-46.481
-46.375
-46.211
-45.986
-45.698
-45.345
-44.925
-44.437
-43.882
-43.26
-42.571
-41.818
-41.001
-40.124
-39.188
-38.198
-37.157
-36.067
-34.933
-33.762
-32.559
-31.33
-30.083
-28.824
-27.561
-26.302
-25.056
-23.83
-22.628
-21.456
-20.32
-19.226
-18.186
-17.207
-16.294
-15.449
-14.68
-13.987
-13.374
-12.834
-12.353
-11.92
-11.526
-11.166
-10.845
-10.56
-10.304
-10.073
-9.855
-9.649
-9.463
-9.296
-9.138
-8.994
-8.885
-8.854
-8.966
-9.273
-9.804
-10.574
-11.609
-12.942
-14.575
-16.506
-18.736
-21.25
-24.079
-27.306
-30.922
-34.846
-39.068
-43.454
-47.637
-51.349
-54.285
-55.874
-56.537
-56.799
-55.915
-54.229
-51.125
-45.513
-40.219
-36.889
-36.686
-42.259
-51.589
-62.891
-75.95
-86.515
-91.164
-86.414
-67.322
-35.03
5.927
51.062
95.375
138.653
183.201
228.354
270.106
300.569
310.011
291.63
244.207
169.978
75.272
-29.505
-134.011
-225.641
-293.136
-333.136
-347.053
-342.681
-330.924
-316.914
-302.098
-284.937
-261.828
-232.92
-200.865
-168.384
-138.642
-113.449
-93.108
-77.691
-66.799
-59.589
-55.221
-53.046
-52.298
-52.076
-51.614
-50.177
-47.395
-43.44
-38.611
-33.15
-27.397
-21.751
-16.661
-12.665
-10.025
-8.67
-8.452
-9.16
-10.575
-12.499
-14.638
-16.625
-18.226
-19.34
-19.931
-20.041
-19.686
-18.855
-17.579
-15.921
-13.936
-11.686
-9.209
-6.523
-3.663
-0.686
2.339
5.328
8.227
11.006
13.649
16.148
18.497
20.691
22.745
24.685
26.535
28.321
30.061
31.769
33.465
35.176
36.93
38.759
40.684
42.716
44.866
47.136
49.532
52.052
54.693
57.441
60.287
63.226
66.249
69.351
72.524
75.757
79.039
82.357
85.701
89.06
92.421
95.772
99.1
102.393
105.64
108.829
111.946
114.977
117.91
120.728
123.417
125.964
128.354
130.573
132.608
134.448
136.081
137.496
138.686
139.64
140.352
140.815
141.024
140.976
140.666
140.095
139.26
138.163
136.807
135.194
133.33
131.218
128.868
126.286
123.483
120.468
117.252
113.849
110.272
106.534
102.651
98.639
94.514
90.293
85.992
81.63
77.223
72.79
68.347
63.912
59.501
55.132
50.82
46.58
42.427
38.376
34.439
30.63
26.958
23.434
20.068
16.868
13.841
10.993
8.329
5.853
3.567
1.473
-0.429
-2.138
-3.659
-4.992
-6.142
-7.114
-7.914
-8.548
-9.023
-9.348
-9.532
-9.582
-9.51
-9.325
-9.038
-8.659
-8.2
-7.67
-7.082
-6.446
-5.772
-5.07
-4.35
-3.622
-2.894
-2.175
-1.473
-0.794
-0.147
0.463
1.03
1.549
2.016
2.427
2.78
3.072
3.301
3.467
3.568
3.604
3.577
3.487
3.336
3.126
2.859
2.538
2.168
1.751
1.291
0.793
0.26
-0.302
-0.889
-1.498
-2.124
-2.762
-3.409
-4.061
-4.713
-5.363
-6.007
-6.641
-7.263
-7.87
-8.459
-9.028
-9.576
-10.101
-10.6
-11.074
-11.521
-11.94
-12.33
-12.692
-13.025
-13.329
-13.605
-13.854
-14.076
-14.273
-14.446
-14.597
-14.727
-14.838
-14.931
-15.008
-15.072
-15.123
-15.163
-15.195
-15.22
-15.239
-15.255
-15.269
-15.282
-15.296
-15.313
-15.334
-15.359
-15.391
-15.43
-15.477
-15.534
-15.601
-15.68
-15.771
-15.876
-15.995
-16.128
-16.275
-16.438
-16.616
-16.81
-17.018
-17.241
-17.479
-17.731
-17.997
-18.276
-18.567
-18.869
-19.183
-19.505
-19.836
-20.174
-20.517
-20.863
-21.212
-21.561
-21.908
-22.252
-22.59
-22.92
-23.24
-23.548
-23.84
-24.114
-24.366
-24.595
-24.796
-24.967
-25.106
-25.207
-25.27
-25.29
-25.266
-25.195
-25.075
-24.902
-24.675
-24.393
-24.053
-23.656
-23.199
-22.683
-22.108
-21.475
-20.785
-20.04
-19.242
-18.391
-17.493
-16.548
-15.561
-14.533
-13.466
-12.366
-11.235
-10.08
-8.905
-7.714
-6.514
-5.31
-4.112
-2.925
-1.754
-0.602
0.527
1.627
2.693
3.716
4.693
5.622
6.5
7.323
8.087
8.793
9.448
10.066
10.655
11.219
11.764
12.288
12.797
13.298
13.79
14.273
14.741
15.187
15.608
16.005
16.361
16.656
16.861
16.924
16.812
16.496
15.943
15.138
14.059
12.672
10.971
8.949
6.599
3.944
0.979
-2.332
-5.938
-9.736
-13.571
-17.161
-20.268
-22.746
-24.356
-24.868
-24.242
-22.538
-20.088
-17.555
-15.486
-14.309
-14.521
-16.481
-20.202
-25.41
-31.278
-36.498
-39.738
-39.586
-34.605
-23.423
-5.928
16.361
41.725
68.035
95.086
125.647
159.937
195.106
224.98
237.821
224.908
184.005
116.399
30.927
-60.783
-149.638
-224.65
-277.639
-307
-313.864
-305.277
-291.268
-276.746
-263.392
-249.812
-232.182
-209.937
-184.791
-158.63
-133.728
-111.172
-91.1
-73.706
-59.109
-47.214
-37.784
-30.716
-25.952
-23.225
-22.069
-21.813
-21.648
-21.146
-20.232
-18.803
-16.81
-14.315
-11.473
-8.643
-6.3
-4.657
-3.692
-3.323
-3.398
-3.77
-4.314
-4.824
-5.041
-4.826
-4.138
-2.99
-1.459
0.394
2.533
4.898
7.402
9.97
12.532
15.026
17.419
19.678
21.769
23.672
25.374
26.875
28.184
29.321
30.307
31.164
31.916
32.584
33.197
33.789
34.395
35.052
35.79
36.632
37.599
38.706
39.966
41.384
42.959
44.686
46.559
48.578
50.743
53.058
55.515
58.096
60.784
63.553
66.392
69.302
72.274
75.295
78.351
81.416
84.488
87.605
90.736
93.799
96.717
99.388
101.802
104.084
106.266
108.287
110.209
112.156
114.279
116.83
119.792
122.837
125.788
128.592
131.087
133.123
134.465
134.705
133.818
132.181
130.019
127.47
124.695
121.751
118.815
116.242
114.074
112.053
110.017
107.83
105.406
102.794
99.948
96.715
93.09
89.186
85.091
80.905
76.673
72.367
67.997
63.609
59.223
54.85
50.495
46.154
41.84
37.586
33.416
29.351
25.407
21.591
17.912
14.381
11.006
7.798
4.763
1.908
-0.763
-3.248
-5.543
-7.648
-9.561
-11.287
-12.826
-14.186
-15.368
-16.376
-17.215
-17.89
-18.408
-18.775
-19.002
-19.095
-19.064
-18.918
-18.668
-18.324
-17.895
-17.392
-16.825
-16.203
-15.536
-14.833
-14.105
-13.359
-12.605
-11.85
-11.102
-10.369
-9.658
-8.973
-8.32
-7.705
-7.131
-6.603
-6.122
-5.693
-5.316
-4.994
-4.726
-4.515
-4.359
-4.258
-4.211
-4.215
-4.269
-4.37
-4.516
-4.703
-4.927
-5.186
-5.476
-5.793
-6.133
-6.493
-6.868
-7.256
-7.651
-8.052
-8.453
-8.852
-9.245
-9.631
-10.005
-10.367
-10.713
-11.043
-11.355
-11.647
-11.919
-12.17
-12.399
-12.607
-12.794
-12.96
-13.107
-13.237
-13.349
-13.448
-13.534
-13.611
-13.68
-13.744
-13.805
-13.867
-13.931
-14.001
-14.08
-14.17
-14.273
-14.394
-14.534
-14.696
-14.882
-15.094
-15.333
-15.601
-15.9
-16.23
-16.591
-16.984
-17.41
-17.867
-18.355
-18.872
-19.416
-19.986
-20.58
-21.195
-21.828
-22.476
-23.134
-23.8
-24.468
-25.135
-25.796
-26.445
-27.077
-27.688
-28.273
-28.828
-29.349
-29.831
-30.266
-30.651
-30.981
-31.251
-31.459
-31.601
-31.672
-31.672
-31.601
-31.461
-31.255
-30.98
-30.639
-30.231
-29.755
-29.22
-28.632
-28
-27.335
-26.637
-25.903
-25.145
-24.366
-23.574
-22.79
-21.997
-21.178
-20.381
-19.637
-18.983
-18.474
-18.06
-17.669
-17.337
-17.088
-16.834
-16.533
-16.075
-15.313
-14.39
-13.462
-12.514
-11.577
-10.749
-10.062
-9.698
-9.865
-10.376
-11.04
-11.816
-12.601
-13.342
-14.037
-14.523
-14.641
-14.547
-14.404
-14.307
-14.394
-14.697
-15.21
-16.036
-17.275
-18.894
-20.86
-23.158
-25.731
-28.602
-31.825
-35.352
-39.078
-42.871
-46.503
-49.754
-52.484
-54.467
-55.442
-55.352
-54.239
-52.318
-50.096
-47.962
-46.161
-45.112
-45.219
-46.55
-48.984
-51.978
-54.447
-55.572
-54.563
-50.213
-41.434
-27.32
-7.843
15.409
40.436
65.413
89.867
115.467
142.479
169.093
191.016
199.301
186.404
148.964
86.19
4.683
-84.779
-172.371
-245.922
-296.63
-323.321
-327.767
-317.379
-301.973
-285.727
-270.03
-253.72
-233.313
-208.576
-181.398
-153.685
-128.016
-105.869
-87.389
-72.588
-61.16
-52.543
-46.292
-42.089
-39.428
-37.652
-36.146
-34.286
-31.732
-28.528
-24.789
-20.624
-16.247
-11.955
-8.1
-5.094
-3.126
-2.144
-2.037
-2.633
-3.735
-5.128
-6.557
-7.749
-8.545
-8.898
-8.797
-8.275
-7.36
-6.07
-4.455
-2.581
-0.504
1.737
4.107
6.577
9.097
11.593
14.007
16.303
18.46
20.473
22.342
24.064
25.65
27.124
28.511
29.837
31.125
32.39
33.654
34.944
36.288
37.72
39.266
40.942
42.762
44.731
46.855
49.137
51.573
54.154
56.87
59.715
62.68
65.762
68.951
72.234
75.6
79.035
82.525
86.058
89.619
93.193
96.765
100.32
103.843
107.321
110.738
114.076
117.32
120.451
123.452
126.307
128.999
131.51
133.826
135.931
137.811
139.455
140.85
141.985
142.851
143.439
143.742
143.755
143.473
142.894
142.014
140.836
139.36
137.589
135.527
133.18
130.555
127.662
124.509
121.107
117.47
113.611
109.543
105.284
100.849
96.256
91.523
86.668
81.711
76.671
71.568
66.422
61.251
56.075
50.914
45.786
40.71
35.703
30.782
25.963
21.262
16.692
12.267
8
3.902
-0.018
-3.751
-7.289
-10.625
-13.755
-16.675
-19.382
-21.874
-24.153
-26.217
-28.071
-29.718
-31.161
-32.407
-33.462
-34.333
-35.029
-35.558
-35.931
-36.157
-36.247
-36.212
-36.062
-35.81
-35.467
-35.044
-34.552
-34.002
-33.406
-32.774
-32.115
-31.439
-30.757
-30.075
-29.403
-28.747
-28.116
-27.515
-26.95
-26.426
-25.947
-25.518
-25.14
-24.817
-24.551
-24.341
-24.189
-24.095
-24.058
-24.076
-24.149
-24.273
-24.447
-24.668
-24.934
-25.24
-25.583
-25.961
-26.37
-26.806
-27.266
-27.748
-28.247
-28.76
-29.286
-29.821
-30.362
-30.906
-31.453
-31.998
-32.541
-33.079
-33.611
-34.136
-34.651
-35.156
-35.651
-36.134
-36.605
-37.064
-37.511
-37.945
-38.367
-38.776
-39.175
-39.562
-39.938
-40.303
-40.659
-41.005
-41.341
-41.669
-41.987
-42.297
-42.599
-42.892
-43.177
-43.454
-43.722
-43.983
-44.235
-44.479
-44.716
-44.944
-45.165
-45.378
-45.584
-45.782
-45.973
-46.157
-46.333
-46.502
-46.663
-46.817
-46.962
-47.1
-47.229
-47.349
-47.46
-47.561
-47.653
-47.734
-47.804
-47.864
-47.912
-47.947
-47.971
-47.981
-47.977
-47.958
-47.924
-47.872
-47.802
-47.712
-47.601
-47.466
-47.307
-47.122
-46.91
-46.667
-46.394
-46.087
-45.747
-45.371
-44.959
-44.51
-44.023
-43.499
-42.936
-42.338
-41.704
-41.036
-40.336
-39.605
-38.846
-38.06
-37.249
-36.414
-35.558
-34.681
-33.787
-32.879
-31.961
-31.037
-30.111
-29.189
-28.275
-27.372
-26.485
-25.613
-24.759
-23.927
-23.12
-22.346
-21.611
-20.919
-20.275
-19.681
-19.137
-18.639
-18.178
-17.74
-17.316
-16.9
-16.486
-16.074
-15.661
-15.243
-14.82
-14.386
-13.938
-13.471
-12.984
-12.48
-11.976
-11.504
-11.1
-10.812
-10.678
-10.726
-10.988
-11.499
-12.291
-13.392
-14.827
-16.598
-18.72
-21.24
-24.154
-27.393
-30.822
-34.201
-37.291
-39.915
-41.904
-43.036
-43.208
-42.461
-41.006
-39.34
-37.988
-37.316
-37.589
-39.019
-41.767
-45.675
-50.165
-54.372
-56.602
-55.221
-49.839
-39.603
-25.018
-7.757
12.935
36.738
63.656
95.476
130.486
166.383
200.185
225.528
237.498
231.534
203.347
152.925
81.147
-7.986
-105.088
-199.852
-279.039
-331.482
-354.885
-352.677
-334.474
-311.459
-288.641
-267.01
-244.606
-218.285
-188.432
-157.251
-127.268
-101.376
-80.736
-65.237
-54.396
-47.162
-42.523
-39.882
-38.57
-37.737
-36.655
-34.669
-31.471
-27.246
-22.312
-16.924
-11.389
-6.07
-1.339
2.379
4.89
6.298
6.791
6.609
6.007
5.2
4.422
3.946
3.926
4.412
5.414
6.879
8.762
11.038
13.655
16.544
19.65
22.91
26.265
29.662
33.029
36.298
39.422
42.363
45.1
47.625
49.936
52.04
53.955
55.702
57.304
58.786
60.169
61.479
62.75
64.016
65.315
66.679
68.133
69.694
71.377
73.19
75.141
77.23
79.453
81.806
84.286
86.89
89.615
92.458
95.409
98.459
101.598
104.815
108.1
111.44
114.825
118.24
121.673
125.112
128.542
131.951
135.321
138.636
141.879
145.03
148.073
150.988
153.759
156.366
158.795
161.027
163.049
164.847
166.406
167.715
168.762
169.539
170.036
170.248
170.167
169.791
169.117
168.143
166.872
165.305
163.446
161.299
158.873
156.174
153.213
150
146.547
142.869
138.979
134.893
130.627
126.199
121.627
116.93
112.126
107.234
102.275
97.267
92.23
87.182
82.142
77.127
72.155
67.243
62.406
57.659
53.017
48.491
44.096
39.84
35.734
31.786
28.004
24.393
20.96
17.708
14.639
11.755
9.057
6.544
4.215
2.066
0.094
-1.705
-3.338
-4.809
-6.127
-7.298
-8.33
-9.232
-10.012
-10.679
-11.243
-11.711
-12.093
-12.399
-12.636
-12.814
-12.941
-13.025
-13.074
-13.094
-13.094
-13.079
-13.055
-13.027
-13.002
-12.983
-12.975
-12.981
-13.004
-13.048
-13.114
-13.203
-13.319
-13.46
-13.628
-13.823
-14.045
-14.293
-14.566
-14.864
-15.185
-15.529
-15.893
-16.276
-16.677
-17.094
-17.525
-17.969
-18.424
-18.889
-19.362
-19.842
-20.327
-20.817
-21.31
-21.805
-22.301
-22.797
-23.292
-23.785
-24.276
-24.764
-25.247
-25.727
-26.201
-26.671
-27.134
-27.591
-28.041
-28.485
-28.922
-29.351
-29.773
-30.188
-30.595
-30.994
-31.386
-31.77
-32.147
-32.515
-32.877
-33.231
-33.578
-33.917
-34.249
-34.575
-34.895
-35.208
-35.515
-35.816
-36.112
-36.402
-36.688
-36.968
-37.243
-37.514
-37.78
-38.043
-38.301
-38.555
-38.806
-39.053
-39.297
-39.537
-39.772
-40.002
-40.227
-40.446
-40.657
-40.86
-41.053
-41.235
-41.404
-41.559
-41.697
-41.817
-41.916
-41.993
-42.045
-42.069
-42.066
-42.032
-41.967
-41.869
-41.737
-41.571
-41.371
-41.136
-40.867
-40.563
-40.224
-39.851
-39.443
-39.002
-38.527
-38.019
-37.481
-36.914
-36.322
-35.706
-35.07
-34.417
-33.752
-33.08
-32.404
-31.724
-31.044
-30.367
-29.698
-29.046
-28.415
-27.805
-27.22
-26.659
-26.123
-25.611
-25.117
-24.626
-24.128
-23.615
-23.086
-22.548
-21.999
-21.437
-20.861
-20.264
-19.65
-19.032
-18.415
-17.803
-17.211
-16.659
-16.182
-15.845
-15.689
-15.754
-16.07
-16.644
-17.495
-18.651
-20.124
-21.93
-24.082
-26.555
-29.344
-32.48
-35.931
-39.61
-43.378
-46.962
-50.085
-52.565
-54.207
-54.768
-54.136
-52.344
-49.568
-46.344
-43.321
-40.933
-39.55
-39.692
-41.711
-45.487
-50.71
-55.996
-58.86
-58.095
-53.131
-43.789
-32.3
-19.138
-2.148
20.127
51.66
94.409
144.049
194.906
236.897
259.625
258.902
232.196
182.32
114.324
30.361
-63.156
-159.217
-248.298
-316.243
-356.589
-368.921
-359.141
-340.311
-319.845
-299.912
-279.763
-254.825
-224.152
-190.281
-155.816
-124.086
-97.113
-75.115
-58.068
-45.592
-36.912
-31.284
-28.142
-26.796
-26.378
-26.141
-25.367
-23.652
-21.105
-17.969
-14.441
-10.812
-7.43
-4.652
-2.907
-2.382
-2.952
-4.427
-6.545
-9.009
-11.586
-14.016
-16.011
-17.419
-18.192
-18.318
-17.859
-16.874
-15.395
-13.496
-11.256
-8.738
-6.018
-3.159
-0.222
2.71
5.568
8.307
10.887
13.295
15.527
17.579
19.463
21.203
22.821
24.344
25.798
27.204
28.59
29.988
31.432
32.959
34.597
36.364
38.273
40.334
42.549
44.92
47.441
50.101
52.893
55.807
58.837
61.975
65.215
68.542
71.945
75.411
78.926
82.477
86.053
89.638
93.219
96.783
100.315
103.805
107.236
110.594
113.862
117.024
120.064
122.965
125.712
128.288
130.678
132.869
134.846
136.597
138.112
139.379
140.388
141.132
141.604
141.798
141.708
141.333
140.668
139.715
138.473
136.946
135.135
133.047
130.687
128.062
125.183
122.059
118.701
115.123
111.336
107.357
103.2
98.882
94.419
89.83
85.133
80.346
75.488
70.578
65.636
60.68
55.729
50.802
45.916
41.088
36.336
31.676
27.124
22.694
18.4
14.256
10.273
6.462
2.834
-0.604
-3.843
-6.878
-9.703
-12.316
-14.712
-16.892
-18.854
-20.599
-22.131
-23.452
-24.566
-25.479
-26.197
-26.727
-27.078
-27.258
-27.278
-27.146
-26.874
-26.472
-25.951
-25.323
-24.599
-23.791
-22.911
-21.969
-20.979
-19.95
-18.894
-17.821
-16.742
-15.665
-14.6
-13.556
-12.539
-11.557
-10.616
-9.723
-8.882
-8.097
-7.372
-6.709
-6.112
-5.582
-5.118
-4.722
-4.393
-4.129
-3.929
-3.791
-3.713
-3.691
-3.723
-3.804
-3.932
-4.102
-4.31
-4.552
-4.823
-5.119
-5.435
-5.768
-6.113
-6.466
-6.824
-7.183
-7.541
-7.893
-8.239
-8.575
-8.901
-9.214
-9.513
-9.799
-10.07
-10.327
-10.57
-10.8
-11.018
-11.225
-11.423
-11.613
-11.796
-11.976
-12.153
-12.331
-12.51
-12.693
-12.882
-13.079
-13.287
-13.506
-13.738
-13.985
-14.248
-14.527
-14.825
-15.14
-15.474
-15.824
-16.192
-16.576
-16.975
-17.386
-17.808
-18.237
-18.671
-19.106
-19.54
-19.968
-20.386
-20.79
-21.177
-21.542
-21.881
-22.189
-22.464
-22.701
-22.896
-23.048
-23.152
-23.206
-23.208
-23.158
-23.054
-22.895
-22.682
-22.414
-22.093
-21.719
-21.295
-20.82
-20.298
-19.73
-19.12
-18.472
-17.791
-17.082
-16.351
-15.604
-14.846
-14.085
-13.327
-12.574
-11.831
-11.104
-10.398
-9.725
-9.09
-8.497
-7.951
-7.455
-7.012
-6.623
-6.28
-5.973
-5.692
-5.428
-5.18
-4.951
-4.737
-4.534
-4.338
-4.14
-3.939
-3.741
-3.543
-3.343
-3.152
-2.988
-2.889
-2.911
-3.097
-3.481
-4.091
-4.944
-6.073
-7.513
-9.288
-11.417
-13.907
-16.759
-20.017
-23.699
-27.742
-32.014
-36.287
-40.293
-43.836
-46.711
-48.635
-49.414
-49.008
-47.584
-45.618
-43.656
-42.113
-41.408
-42.006
-44.247
-48.145
-53.226
-58.45
-62.57
-64.318
-62.346
-55.227
-41.404
-20.514
5.948
36.022
67.478
99.715
135.428
175.702
217.562
254.566
275.157
268.652
232.233
168.196
83.316
-11.698
-108.524
-199.509
-274.185
-324.728
-348.206
-345.724
-325.852
-300.764
-276.781
-256.992
-241.18
-223.715
-202.847
-179.012
-152.079
-125.835
-102.765
-83.212
-68.059
-56.297
-46.615
-38.906
-32.984
-28.571
-25.341
-22.634
-19.742
-16.435
-12.81
-8.898
-4.743
-0.511
3.559
7.095
9.652
11.078
11.457
10.904
9.606
7.778
5.646
3.5
1.646
0.258
-0.605
-0.928
-0.744
-0.076
1.055
2.594
4.465
6.604
8.96
11.486
14.141
16.86
19.555
22.159
24.625
26.924
29.05
30.997
32.762
34.353
35.795
37.112
38.332
39.478
40.567
41.622
42.673
43.75
44.891
46.123
47.461
48.92
50.506
52.221
54.07
56.046
58.139
60.34
62.642
65.039
67.525
70.093
72.733
75.433
78.182
80.969
83.783
86.613
89.447
92.273
95.08
97.856
100.593
103.276
105.894
108.432
110.877
113.214
115.431
117.513
119.445
121.216
122.813
124.224
125.44
126.451
127.247
127.82
128.164
128.272
128.139
127.76
127.132
126.253
125.121
123.736
122.1
120.214
118.082
115.708
113.098
110.258
107.197
103.923
100.446
96.777
92.928
88.912
84.741
80.432
75.998
71.455
66.82
62.109
57.34
52.528
47.691
42.846
38.009
33.198
28.427
23.714
19.074
14.522
10.073
5.742
1.54
-2.518
-6.422
-10.161
-13.724
-17.103
-20.29
-23.278
-26.063
-28.639
-31.003
-33.154
-35.09
-36.811
-38.319
-39.617
-40.709
-41.599
-42.294
-42.8
-43.125
-43.278
-43.269
-43.106
-42.802
-42.366
-41.811
-41.148
-40.389
-39.548
-38.636
-37.665
-36.649
-35.599
-34.526
-33.444
-32.362
-31.291
-30.242
-29.223
-28.244
-27.313
-26.436
-25.621
-24.872
-24.195
-23.593
-23.069
-22.626
-22.263
-21.982
-21.782
-21.66
-21.615
-21.643
-21.74
-21.901
-22.121
-22.394
-22.714
-23.075
-23.468
-23.888
-24.327
-24.777
-25.231
-25.682
-26.123
-26.547
-26.948
-27.319
-27.656
-27.952
-28.204
-28.407
-28.56
-28.659
-28.703
-28.691
-28.623
-28.498
-28.318
-28.085
-27.8
-27.464
-27.081
-26.656
-26.192
-25.695
-25.171
-24.624
-24.062
-23.492
-22.92
-22.35
-21.786
-21.231
-20.69
-20.169
-19.674
-19.211
-18.782
-18.391
-18.042
-17.737
-17.476
-17.25
-17.048
-16.861
-16.683
-16.512
-16.348
-16.189
-16.031
-15.87
-15.7
-15.523
-15.336
-15.137
-14.925
-14.704
-14.49
-14.32
-14.24
-14.291
-14.51
-14.913
-15.517
-16.351
-17.442
-18.812
-20.473
-22.409
-24.618
-27.149
-30.014
-33.15
-36.419
-39.565
-42.33
-44.557
-46.067
-46.592
-45.973
-44.238
-41.678
-38.896
-36.466
-34.842
-34.476
-35.883
-39.559
-44.933
-50.357
-54.286
-54.904
-52.435
-49.324
-45.201
-39.329
-29.537
-9.66
21.872
64.911
119.543
178.832
234.833
278.81
298.417
286.763
243.933
173.773
84.604
-13.889
-114.667
-209.793
-288.747
-343.733
-370.859
-371.965
-356.767
-335.638
-314.25
-294.534
-274.16
-249.883
-222.134
-192.845
-164.315
-139.237
-118.449
-101.612
-88.48
-78.306
-70.203
-63.82
-58.825
-54.647
-50.957
-47.398
-43.467
-39.111
-34.533
-29.789
-25.025
-20.493
-16.347
-12.873
-10.453
-9.154
-8.888
-9.56
-10.961
-12.884
-15.135
-17.419
-19.428
-20.995
-22.035
-22.53
-22.513
-21.998
-21
-19.576
-17.799
-15.738
-13.453
-10.977
-8.343
-5.603
-2.83
-0.104
2.515
4.996
7.322
9.489
11.495
13.341
15.047
16.643
18.16
19.628
21.07
22.505
23.955
25.451
27.021
28.701
30.513
32.47
34.583
36.856
39.291
41.888
44.639
47.53
50.55
53.689
56.937
60.285
63.722
67.231
70.799
74.41
78.047
81.697
85.34
88.962
92.545
96.073
99.529
102.899
106.165
109.311
112.319
115.171
117.851
120.342
122.628
124.694
126.525
128.108
129.432
130.486
131.26
131.748
131.941
131.836
131.429
130.717
129.699
128.378
126.754
124.832
122.618
120.118
117.342
114.298
110.998
107.454
103.68
99.69
95.5
91.126
86.584
81.894
77.073
72.14
67.115
62.017
56.865
51.679
46.479
41.284
36.113
30.984
25.914
20.922
16.024
11.235
6.57
2.043
-2.334
-6.548
-10.589
-14.448
-18.116
-21.587
-24.855
-27.915
-30.765
-33.401
-35.823
-38.031
-40.026
-41.811
-43.389
-44.763
-45.941
-46.926
-47.726
-48.349
-48.804
-49.098
-49.242
-49.245
-49.119
-48.874
-48.52
-48.07
-47.534
-46.925
-46.252
-45.528
-44.764
-43.969
-43.154
-42.329
-41.503
-40.685
-39.883
-39.104
-38.356
-37.645
-36.976
-36.354
-35.784
-35.268
-34.809
-34.41
-34.072
-33.796
-33.581
-33.428
-33.334
-33.297
-33.316
-33.387
-33.506
-33.669
-33.869
-34.103
-34.364
-34.646
-34.943
-35.248
-35.555
-35.856
-36.145
-36.416
-36.661
-36.875
-37.051
-37.184
-37.269
-37.3
-37.275
-37.188
-37.038
-36.823
-36.541
-36.191
-35.772
-35.286
-34.732
-34.112
-33.428
-32.681
-31.873
-31.007
-30.087
-29.117
-28.104
-27.052
-25.966
-24.855
-23.725
-22.583
-21.435
-20.285
-19.139
-18.002
-16.882
-15.789
-14.729
-13.709
-12.732
-11.804
-10.929
-10.107
-9.331
-8.59
-7.876
-7.181
-6.505
-5.847
-5.206
-4.578
-3.959
-3.343
-2.732
-2.129
-1.535
-0.952
-0.392
0.124
0.555
0.851
0.964
0.855
0.5
-0.123
-1.041
-2.284
-3.882
-5.855
-8.191
-10.881
-13.949
-17.383
-21.123
-25.044
-28.888
-32.391
-35.378
-37.665
-39.017
-39.308
-38.523
-36.813
-34.713
-32.768
-31.274
-30.646
-31.403
-33.828
-37.99
-43.02
-46.839
-47.697
-44.782
-39.011
-32.257
-25.085
-16.305
-1.618
23.345
60.46
109.191
163.59
215.763
257.185
279.099
277.292
249.807
198.974
130.287
46.961
-45.552
-141.863
-235.816
-314.202
-365.838
-385.089
-371.246
-336.251
-295.841
-259.88
-235.179
-218.748
-201.728
-180.303
-152.216
-119.634
-89.191
-64.093
-45.78
-34.33
-27.347
-23.365
-21.875
-21.974
-22.995
-24.199
-24.575
-23.657
-21.493
-18.221
-14.069
-9.432
-4.712
-0.376
3.038
5.331
6.578
6.923
6.617
5.919
5.035
4.228
3.772
3.801
4.353
5.422
6.932
8.827
11.069
13.588
16.312
19.174
22.104
25.046
27.943
30.742
33.398
35.881
38.168
40.254
42.143
43.843
45.377
46.767
48.038
49.215
50.323
51.39
52.451
53.541
54.697
55.951
57.327
58.843
60.515
62.351
64.357
66.534
68.876
71.379
74.039
76.851
79.81
82.91
86.141
89.49
92.945
96.492
100.117
103.805
107.542
111.31
115.094
118.877
122.642
126.372
130.046
133.646
137.149
140.536
143.785
146.875
149.786
152.498
154.993
157.252
159.259
160.999
162.457
163.62
164.477
165.019
165.237
165.125
164.679
163.894
162.771
161.311
159.516
157.39
154.941
152.176
149.106
145.741
142.095
138.182
134.019
129.621
125.007
120.197
115.211
110.07
104.794
99.408
93.932
88.39
82.804
77.197
71.589
66.004
60.462
54.982
49.585
44.29
39.113
34.071
29.179
24.452
19.902
15.541
11.378
7.422
3.679
0.156
-3.145
-6.219
-9.067
-11.687
-14.083
-16.255
-18.208
-19.948
-21.48
-22.811
-23.949
-24.904
-25.685
-26.303
-26.767
-27.09
-27.284
-27.359
-27.329
-27.205
-26.999
-26.723
-26.39
-26.011
-25.598
-25.161
-24.71
-24.257
-23.81
-23.377
-22.967
-22.587
-22.244
-21.943
-21.689
-21.486
-21.34
-21.251
-21.224
-21.259
-21.357
-21.518
-21.743
-22.03
-22.378
-22.785
-23.248
-23.765
-24.332
-24.946
-25.604
-26.301
-27.033
-27.796
-28.585
-29.395
-30.222
-31.061
-31.907
-32.756
-33.603
-34.445
-35.277
-36.095
-36.897
-37.679
-38.438
-39.172
-39.878
-40.554
-41.198
-41.809
-42.385
-42.927
-43.433
-43.903
-44.337
-44.735
-45.098
-45.426
-45.719
-45.98
-46.207
-46.403
-46.568
-46.704
-46.812
-46.894
-46.95
-46.982
-46.992
-46.98
-46.949
-46.899
-46.831
-46.745
-46.643
-46.525
-46.391
-46.24
-46.074
-45.892
-45.693
-45.477
-45.243
-44.991
-44.719
-44.426
-44.112
-43.775
-43.414
-43.028
-42.618
-42.181
-41.718
-41.229
-40.714
-40.174
-39.609
-39.021
-38.41
-37.778
-37.126
-36.456
-35.771
-35.07
-34.355
-33.628
-32.891
-32.148
-31.401
-30.652
-29.905
-29.165
-28.435
-27.719
-27.019
-26.336
-25.671
-25.026
-24.406
-23.816
-23.259
-22.738
-22.255
-21.813
-21.412
-21.051
-20.721
-20.408
-20.101
-19.792
-19.476
-19.154
-18.821
-18.473
-18.107
-17.718
-17.308
-16.876
-16.422
-15.948
-15.464
-14.989
-14.57
-14.261
-14.111
-14.166
-14.448
-14.98
-15.798
-16.934
-18.416
-20.259
-22.44
-24.961
-27.874
-31.184
-34.832
-38.659
-42.377
-45.716
-48.503
-50.525
-51.504
-51.271
-49.824
-47.473
-44.856
-42.548
-41.023
-40.827
-42.52
-46.48
-52.063
-57.55
-61.201
-61.725
-59.866
-57.441
-53.84
-46.801
-32.324
-5.858
32.624
79.911
132.261
184.285
230.477
265.838
282.747
273.525
235.897
170.844
83.126
-16.96
-120.256
-217.096
-295.156
-347.358
-371.549
-370.768
-355.527
-335.635
-315.726
-296.683
-275.519
-249.126
-218.157
-185.038
-152.568
-123.542
-99.044
-79.167
-63.928
-52.886
-45.379
-40.802
-38.52
-37.703
-37.601
-37.52
-36.721
-34.894
-32.094
-28.439
-24.166
-19.656
-15.261
-11.404
-8.566
-6.917
-6.409
-6.942
-8.291
-10.2
-12.439
-14.692
-16.645
-18.136
-19.094
-19.508
-19.425
-18.874
-17.875
-16.488
-14.782
-12.811
-10.626
-8.253
-5.721
-3.083
-0.404
2.246
4.811
7.267
9.599
11.803
13.878
15.834
17.685
19.46
21.185
22.883
24.575
26.276
28.007
29.795
31.666
33.649
35.767
38.031
40.448
43.022
45.754
48.639
51.668
54.828
58.107
61.491
64.971
68.536
72.173
75.868
79.606
83.371
87.149
90.925
94.686
98.416
102.1
105.723
109.269
112.723
116.067
119.283
122.355
125.264
127.995
130.531
132.86
134.967
136.842
138.47
139.838
140.933
141.742
142.259
142.478
142.401
142.032
141.381
140.461
139.285
137.866
136.211
134.323
132.198
129.834
127.227
124.38
121.305
118.014
114.515
110.818
106.927
102.84
98.548
94.038
89.294
84.308
79.085
73.649
68.038
62.299
56.488
50.654
44.832
39.057
33.358
27.767
22.316
17.046
12
7.232
2.805
-1.234
-4.851
-8.037
-10.804
-13.183
-15.221
-16.955
-18.419
-19.638
-20.634
-21.425
-22.031
-22.475
-22.782
-22.99
-23.148
-23.296
-23.468
-23.679
-23.929
-24.204
-24.477
-24.725
-24.93
-25.082
-25.175
-25.21
-25.19
-25.12
-25.006
-24.848
-24.637
-24.367
-24.03
-23.63
-23.175
-22.679
-22.163
-21.645
-21.142
-20.668
-20.231
-19.836
-19.486
-19.179
-18.911
-18.679
-18.484
-18.326
-18.206
-18.124
-18.076
-18.06
-18.069
-18.1
-18.145
-18.199
-18.258
-18.316
-18.371
-18.42
-18.463
-18.498
-18.523
-18.536
-18.534
-18.516
-18.477
-18.416
-18.331
-18.217
-18.075
-17.902
-17.698
-17.461
-17.193
-16.892
-16.558
-16.193
-15.797
-15.372
-14.918
-14.437
-13.931
-13.402
-12.853
-12.286
-11.705
-11.111
-10.509
-9.901
-9.292
-8.683
-8.078
-7.48
-6.893
-6.32
-5.763
-5.226
-4.711
-4.222
-3.762
-3.333
-2.938
-2.578
-2.256
-1.974
-1.732
-1.532
-1.375
-1.26
-1.188
-1.158
-1.171
-1.224
-1.316
-1.445
-1.609
-1.804
-2.028
-2.276
-2.545
-2.83
-3.128
-3.434
-3.742
-4.048
-4.346
-4.632
-4.9
-5.144
-5.359
-5.541
-5.684
-5.783
-5.835
-5.834
-5.778
-5.662
-5.485
-5.242
-4.933
-4.555
-4.108
-3.591
-3.004
-2.349
-1.626
-0.841
0.005
0.908
1.861
2.861
3.9
4.973
6.074
7.197
8.335
9.481
10.629
11.77
12.897
14.001
15.075
16.108
17.095
18.028
18.902
19.713
20.459
21.136
21.739
22.263
22.702
23.052
23.309
23.472
23.541
23.52
23.417
23.247
23.019
22.744
22.431
22.085
21.711
21.311
20.889
20.452
20.014
19.578
19.148
18.726
18.301
17.857
17.37
16.797
16.099
15.249
14.22
12.986
11.523
9.813
7.849
5.644
3.191
0.453
-2.576
-5.84
-9.205
-12.457
-15.383
-17.827
-19.615
-20.477
-20.239
-18.918
-16.791
-14.419
-12.342
-10.981
-10.767
-12.238
-15.919
-21.273
-26.679
-30.551
-31.113
-28.774
-26.208
-23.326
-19.366
-11.639
6.616
37.488
80.847
135.989
195.103
249.819
291.563
309.082
296.943
255.891
189.72
105.811
11.858
-86.542
-182.274
-265.243
-326.569
-360.738
-367.545
-353.543
-327.229
-294.573
-260.144
-227.41
-198.126
-174.328
-156.081
-139.846
-122.961
-104.218
-83.983
-65.466
-50.959
-40.551
-33.666
-28.847
-24.96
-21.839
-19.399
-17.401
-15.524
-13.567
-11.445
-9.177
-6.914
-4.758
-2.81
-1.32
-0.553
-0.584
-1.372
-2.788
-4.599
-6.597
-8.613
-10.434
-11.85
-12.753
-13.093
-12.875
-12.159
-10.995
-9.428
-7.525
-5.357
-2.983
-0.462
2.153
4.801
7.412
9.928
12.309
14.528
16.576
18.451
20.153
21.697
23.107
24.409
25.628
26.783
27.892
28.977
30.063
31.177
32.352
33.608
34.959
36.416
37.986
39.67
41.468
43.374
45.376
47.464
49.632
51.871
54.176
56.539
58.948
61.394
63.866
66.353
68.845
71.331
73.8
76.242
78.646
81.002
83.301
85.533
87.686
89.75
91.711
93.56
95.284
96.873
98.316
99.601
100.721
101.666
102.429
103.002
103.378
103.554
103.523
103.283
102.831
102.165
101.285
100.191
98.883
97.365
95.639
93.708
91.577
89.252
86.739
84.046
81.18
78.151
74.968
71.642
68.183
64.604
60.915
57.131
53.263
49.326
45.332
41.296
37.231
33.151
29.071
25.002
20.959
16.955
13.001
9.11
5.293
1.56
-2.077
-5.609
-9.027
-12.324
-15.489
-18.518
-21.403
-24.139
-26.721
-29.144
-31.407
-33.506
-35.44
-37.209
-38.812
-40.251
-41.527
-42.643
-43.602
-44.408
-45.065
-45.58
-45.957
-46.203
-46.324
-46.329
-46.223
-46.015
-45.713
-45.323
-44.853
-44.312
-43.705
-43.041
-42.327
-41.571
-40.778
-39.956
-39.111
-38.25
-37.379
-36.503
-35.628
-34.758
-33.898
-33.051
-32.223
-31.414
-30.63
-29.872
-29.141
-28.441
-27.771
-27.134
-26.529
-25.955
-25.414
-24.905
-24.426
-23.977
-23.558
-23.168
-22.805
-22.47
-22.161
-21.878
-21.621
-21.388
-21.179
-20.993
-20.829
-20.687
-20.565
-20.464
-20.382
-20.319
-20.275
-20.248
-20.239
-20.246
-20.269
-20.307
-20.36
-20.425
-20.503
-20.591
-20.691
-20.8
-20.919
-21.045
-21.179
-21.317
-21.46
-21.605
-21.749
-21.89
-22.026
-22.154
-22.27
-22.371
-22.456
-22.519
-22.558
-22.57
-22.552
-22.501
-22.413
-22.287
-22.119
-21.908
-21.652
-21.349
-21
-20.602
-20.158
-19.668
-19.133
-18.555
-17.935
-17.276
-16.579
-15.849
-15.087
-14.297
-13.482
-12.645
-11.793
-10.931
-10.065
-9.2
-8.343
-7.499
-6.678
-5.886
-5.129
-4.409
-3.732
-3.102
-2.527
-2.013
-1.566
-1.186
-0.874
-0.633
-0.463
-0.362
-0.324
-0.334
-0.38
-0.455
-0.556
-0.684
-0.833
-0.995
-1.163
-1.333
-1.507
-1.693
-1.889
-2.094
-2.315
-2.567
-2.884
-3.313
-3.887
-4.635
-5.586
-6.751
-8.154
-9.824
-11.778
-14.03
-16.582
-19.405
-22.498
-25.884
-29.533
-33.375
-37.261
-40.913
-44.098
-46.673
-48.457
-49.237
-48.906
-47.437
-45.051
-42.379
-40.006
-38.268
-37.57
-38.376
-40.935
-45.384
-50.792
-54.762
-55.317
-51.581
-44.611
-37.269
-31.071
-24.405
-12.293
11.774
51.82
106.247
167.047
221.701
257.733
267.123
247.609
203.317
140.888
64.898
-20.284
-110.954
-201.528
-280.699
-337.903
-367.692
-370.829
-356.66
-336.717
-317.32
-300.274
-283.17
-261.926
-236.012
-207.364
-178.321
-151.482
-128.152
-108.337
-91.891
-78.632
-68.178
-60.121
-54.261
-50.27
-47.577
-45.734
-44.217
-42.434
-40.21
-37.569
-34.467
-31.021
-27.485
-24.069
-21.098
-18.947
-17.704
-17.329
-17.753
-18.783
-20.197
-21.783
-23.286
-24.452
-25.166
-25.386
-25.104
-24.367
-23.212
-21.674
-19.819
-17.718
-15.424
-12.97
-10.39
-7.716
-5.006
-2.334
0.251
2.717
5.051
7.248
9.31
11.238
13.051
14.778
16.448
18.085
19.711
21.339
22.99
24.688
26.46
28.337
30.339
32.478
34.765
37.202
39.791
42.53
45.409
48.414
51.533
54.753
58.065
61.458
64.92
68.436
71.991
75.569
79.155
82.733
86.286
89.799
93.254
96.636
99.93
103.121
106.192
109.129
111.914
114.531
116.965
119.201
121.223
123.017
124.571
125.872
126.912
127.679
128.168
128.371
128.284
127.905
127.23
126.26
124.995
123.439
121.595
119.469
117.068
114.399
111.471
108.295
104.883
101.248
97.403
93.364
89.146
84.766
80.241
75.59
70.831
65.983
61.066
56.098
51.101
46.093
41.095
36.125
31.202
26.344
21.568
16.892
12.331
7.899
3.61
-0.524
-4.49
-8.278
-11.878
-15.283
-18.486
-21.481
-24.262
-26.827
-29.173
-31.3
-33.208
-34.898
-36.373
-37.636
-38.692
-39.547
-40.208
-40.682
-40.979
-41.107
-41.076
-40.898
-40.583
-40.144
-39.591
-38.938
-38.197
-37.379
-36.496
-35.561
-34.585
-33.58
-32.555
-31.523
-30.492
-29.473
-28.474
-27.505
-26.572
-25.683
-24.844
-24.061
-23.339
-22.683
-22.096
-21.58
-21.138
-20.771
-20.479
-20.263
-20.121
-20.052
-20.054
-20.123
-20.256
-20.45
-20.699
-21.001
-21.349
-21.739
-22.165
-22.623
-23.106
-23.61
-24.129
-24.657
-25.19
-25.723
-26.249
-26.766
-27.267
-27.749
-28.207
-28.639
-29.04
-29.407
-29.737
-30.028
-30.279
-30.486
-30.65
-30.769
-30.844
-30.873
-30.858
-30.8
-30.699
-30.557
-30.375
-30.157
-29.903
-29.616
-29.299
-28.954
-28.584
-28.191
-27.779
-27.351
-26.908
-26.455
-25.994
-25.528
-25.06
-24.593
-24.129
-23.672
-23.224
-22.788
-22.365
-21.959
-21.571
-21.204
-20.858
-20.536
-20.238
-19.965
-19.719
-19.499
-19.307
-19.143
-19.006
-18.896
-18.815
-18.761
-18.734
-18.734
-18.76
-18.812
-18.89
-18.992
-19.118
-19.267
-19.438
-19.631
-19.844
-20.077
-20.328
-20.596
-20.881
-21.181
-21.494
-21.821
-22.16
-22.509
-22.869
-23.238
-23.617
-24.003
-24.398
-24.8
-25.208
-25.624
-26.045
-26.472
-26.903
-27.339
-27.779
-28.221
-28.666
-29.113
-29.56
-30.007
-30.453
-30.896
-31.336
-31.771
-32.2
-32.621
-33.033
-33.434
-33.824
-34.2
-34.56
-34.903
-35.227
-35.53
-35.809
-36.062
-36.286
-36.479
-36.637
-36.758
-36.839
-36.877
-36.87
-36.814
-36.708
-36.55
-36.336
-36.067
-35.739
-35.352
-34.904
-34.396
-33.828
-33.199
-32.511
-31.764
-30.96
-30.103
-29.195
-28.239
-27.238
-26.197
-25.118
-24.007
-22.867
-21.701
-20.514
-19.312
-18.1
-16.884
-15.671
-14.467
-13.281
-12.119
-10.987
-9.89
-8.829
-7.808
-6.834
-5.91
-5.043
-4.239
-3.5
-2.83
-2.235
-1.713
-1.264
-0.876
-0.531
-0.22
0.06
0.311
0.527
0.721
0.91
1.1
1.3
1.507
1.704
1.917
2.177
2.432
2.638
2.729
2.597
2.257
1.749
1.005
-0.014
-1.246
-2.686
-4.247
-5.798
-7.488
-9.449
-11.678
-14.246
-17.224
-20.57
-24.298
-28.338
-32.295
-35.846
-38.732
-40.612
-41.32
-40.798
-39.145
-36.73
-33.994
-31.392
-29.543
-28.991
-29.981
-31.913
-32.965
-31.36
-26.448
-19.876
-14.429
-11.198
-8.339
0.739
22.866
60.844
113.034
170.271
222.155
261.292
282.235
284.686
268.063
229.396
166.747
79.29
-26.531
-136.447
-233.612
-302.486
-337.706
-344.904
-334.527
-318.036
-300.105
-277.991
-249.431
-214.049
-175.211
-140.398
-113.107
-92.434
-76.636
-62.135
-47.924
-36.301
-28.196
-24.077
-23.399
-23.832
-23.894
-22.868
-20.349
-16.612
-11.97
-6.609
-0.877
4.763
9.82
13.8
16.462
17.842
18.079
17.387
15.993
14.139
12.144
10.348
8.966
8.093
7.747
7.893
8.517
9.618
11.158
13.07
15.292
17.765
20.452
23.325
26.34
29.432
32.521
35.541
38.453
41.235
43.884
46.392
48.756
50.982
53.092
55.112
57.069
58.985
60.877
62.767
64.68
66.647
68.699
70.864
73.153
75.577
78.141
80.846
83.694
86.68
89.793
93.021
96.357
99.792
103.319
106.929
110.609
114.346
118.127
121.938
125.769
129.605
133.432
137.239
141.01
144.734
148.398
151.988
155.49
158.889
162.17
165.317
168.318
171.156
173.818
176.292
178.563
180.623
182.46
184.065
185.43
186.547
187.411
188.017
188.361
188.44
188.253
187.8
187.081
186.099
184.857
183.36
181.612
179.621
177.395
174.943
172.274
169.399
166.331
163.083
159.667
156.099
152.393
148.565
144.63
140.606
136.509
132.355
128.162
123.945
119.721
115.506
111.316
107.165
103.069
99.04
95.093
91.241
87.494
83.865
80.363
76.998
73.778
70.712
67.804
65.061
62.487
60.085
57.857
55.805
53.928
52.226
50.695
49.335
48.139
47.104
46.224
45.491
44.899
44.44
44.106
43.887
43.774
43.757
43.827
43.974
44.188
44.458
44.774
45.127
45.507
45.904
46.308
46.711
47.105
47.481
47.831
48.15
48.43
48.665
48.851
48.984
49.059
49.075
49.027
48.916
48.74
48.499
48.194
47.827
47.397
46.91
46.366
45.77
45.124
44.434
43.703
42.937
42.139
41.315
40.469
39.608
38.735
37.857
36.977
36.102
35.234
34.38
33.543
32.727
31.935
31.171
30.436
29.735
29.068
28.436
27.841
27.284
26.763
26.279
25.83
25.415
25.033
24.681
24.357
24.057
23.78
23.521
23.277
23.045
22.821
22.6
22.38
22.157
21.926
21.683
21.426
21.15
20.853
20.53
20.18
19.798
19.383
18.933
18.445
17.919
17.352
16.744
16.095
15.404
14.673
13.901
13.089
12.24
11.355
10.435
9.482
8.5
7.49
6.456
5.4
4.326
3.236
2.133
1.021
-0.097
-1.219
-2.341
-3.461
-4.576
-5.684
-6.782
-7.868
-8.939
-9.995
-11.032
-12.05
-13.048
-14.025
-14.98
-15.914
-16.826
-17.716
-18.585
-19.434
-20.264
-21.075
-21.871
-22.652
-23.419
-24.176
-24.924
-25.666
-26.404
-27.14
-27.876
-28.615
-29.36
-30.112
-30.873
-31.645
-32.431
-33.232
-34.049
-34.884
-35.739
-36.614
-37.509
-38.426
-39.365
-40.326
-41.308
-42.31
-43.333
-44.374
-45.432
-46.505
-47.592
-48.689
-49.793
-50.902
-52.013
-53.121
-54.222
-55.313
-56.389
-57.445
-58.476
-59.479
-60.447
-61.375
-62.258
-63.091
-63.869
-64.586
-65.238
-65.82
-66.326
-66.752
-67.094
-67.348
-67.51
-67.578
-67.548
-67.418
-67.186
-66.851
-66.412
-65.869
-65.222
-64.473
-63.625
-62.68
-61.642
-60.514
-59.302
-58.01
-56.645
-55.212
-53.716
-52.163
-50.561
-48.919
-47.244
-45.545
-43.831
-42.111
-40.394
-38.691
-37.008
-35.352
-33.727
-32.142
-30.606
-29.129
-27.719
-26.384
-25.129
-23.962
-22.887
-21.905
-21.011
-20.196
-19.452
-18.773
-18.157
-17.603
-17.107
-16.663
-16.262
-15.898
-15.569
-15.275
-15.01
-14.769
-14.563
-14.412
-14.353
-14.435
-14.693
-15.154
-15.85
-16.814
-18.088
-19.721
-21.741
-24.152
-26.953
-30.163
-33.795
-37.829
-42.155
-46.551
-50.789
-54.684
-58.067
-60.759
-62.578
-63.393
-63.315
-62.77
-62.204
-61.96
-62.407
-63.89
-66.762
-71.437
-77.119
-81.763
-83.794
-81.657
-76.043
-70.245
-64.701
-58.598
-48.822
-27.924
6.83
54.985
114.712
177.19
233.602
276.115
294.674
284.064
244.392
177.998
91.162
-7.555
-110.918
-210.116
-293.718
-353.371
-385.001
-389.993
-377.403
-357.347
-335.383
-313.561
-290.009
-261.568
-228.738
-193.954
-159.977
-130.008
-105.417
-86.151
-72.048
-62.426
-56.369
-53.165
-52.093
-52.225
-52.778
-53.084
-52.48
-50.74
-48.008
-44.477
-40.435
-36.304
-32.439
-29.214
-27.049
-26.069
-26.173
-27.216
-28.932
-31.021
-33.252
-35.362
-37.081
-38.288
-38.937
-39.019
-38.593
-37.708
-36.397
-34.731
-32.784
-30.608
-28.267
-25.817
-23.308
-20.821
-18.42
-16.147
-14.037
-12.102
-10.344
-8.765
-7.355
-6.091
-4.95
-3.905
-2.932
-2.012
-1.117
-0.217
0.722
1.736
2.854
4.096
5.478
7.009
8.695
10.538
12.536
14.681
16.966
19.384
21.93
24.6
27.387
30.28
33.268
36.34
39.484
42.687
45.938
49.222
52.528
55.841
59.149
62.438
65.696
68.906
72.052
75.118
78.087
80.942
83.668
86.247
88.664
90.904
92.954
94.8
96.431
97.835
99.003
99.924
100.592
100.998
101.139
101.009
100.605
99.925
98.971
97.742
96.242
94.474
92.443
90.156
87.622
84.848
81.846
78.626
75.202
71.586
67.793
63.838
59.738
55.508
51.165
46.727
42.212
37.637
33.019
28.376
23.725
19.083
14.466
9.891
5.372
0.924
-3.437
-7.699
-11.85
-15.877
-19.77
-23.519
-27.117
-30.555
-33.827
-36.927
-39.852
-42.599
-45.165
-47.549
-49.752
-51.775
-53.62
-55.29
-56.79
-58.124
-59.298
-60.319
-61.193
-61.928
-62.532
-63.013
-63.38
-63.642
-63.807
-63.886
-63.887
-63.819
-63.691
-63.513
-63.292
-63.037
-62.756
-62.455
-62.142
-61.822
-61.503
-61.188
-60.882
-60.59
-60.315
-60.06
-59.827
-59.617
-59.432
-59.272
-59.138
-59.028
-58.941
-58.877
-58.834
-58.809
-58.799
-58.804
-58.819
-58.842
-58.87
-58.898
-58.923
-58.94
-58.947
-58.942
-58.921
-58.876
-58.812
-58.729
-58.63
-58.519
-58.388
-58.227
-58.042
-57.843
-57.609
-57.327
-56.984
-56.566
-56.086
-55.577
-55.025
-54.4
-53.784
-53.269
-52.805
-52.398
-52.069
-51.623
-51.595
-52.507
-53.62
-54.712
-54.427
-51.137
-46.648
-42.163
-39.472
-41.035
-44.68
-48.564
-51.427
-51.181
-49.319
-47.352
-45.615
-45.029
-45.057
-45.01
-45.016
-44.985
-44.961
-45.08
-45.248
-45.388
-45.521
-45.65
-45.761
-45.854
-45.931
-45.99
-46.042
-46.101
-46.158
-46.203
-46.236
-46.256
-46.259
-46.246
-46.213
-46.156
-46.075
-45.971
-45.842
-45.689
-45.513
-45.314
-45.093
-44.851
-44.589
-44.309
-44.013
-43.703
-43.38
-43.046
-42.705
-42.359
-42.01
-41.662
-41.316
-40.974
-40.639
-40.312
-39.994
-39.686
-39.386
-39.096
-38.815
-38.544
-38.281
-38.028
-37.784
-37.549
-37.325
-37.11
-36.903
-36.699
-36.496
-36.289
-36.074
-35.844
-35.594
-35.319
-35.016
-34.68
-34.311
-33.907
-33.462
-32.973
-32.432
-31.833
-31.176
-30.459
-29.683
-28.854
-27.981
-27.078
-26.165
-25.252
-24.347
-23.451
-22.558
-21.664
-20.763
-19.848
-18.919
-17.975
-17.013
-16.032
-15.03
-13.993
-12.905
-11.738
-10.455
-9.032
-7.456
-5.724
-3.855
-1.869
0.209
2.344
4.51
6.688
8.85
10.974
13.042
15.022
16.882
18.58
20.049
21.238
22.107
22.628
22.803
22.637
22.135
21.307
20.156
18.684
16.902
14.823
12.451
9.795
6.861
3.66
0.235
-3.372
-7.117
-10.973
-14.964
-19.082
-23.255
-27.353
-31.168
-34.492
-37.175
-39.048
-39.871
-39.491
-37.92
-35.367
-32.354
-29.471
-27.184
-25.966
-26.295
-28.454
-32.389
-37.587
-42.947
-47.177
-48.979
-46.907
-39.558
-25.607
-4.885
21.011
50.067
80.084
110.369
142.855
177.788
212.201
240.366
252.54
240.416
202.341
140.218
60.201
-27.285
-114.553
-193.032
-252.559
-289.968
-304.877
-301.379
-290.044
-276.656
-263.275
-249.885
-232.579
-210.452
-185.409
-159.201
-134.322
-112.104
-92.671
-76.222
-62.605
-51.391
-42.205
-34.771
-28.862
-24.225
-20.369
-16.663
-12.74
-8.563
-4.258
0.043
4.242
8.227
11.7
14.238
15.632
15.888
15.145
13.63
11.543
9.077
6.513
4.174
2.277
0.938
0.19
0.001
0.356
1.244
2.624
4.432
6.598
9.061
11.77
14.68
17.735
20.854
23.953
26.965
29.848
32.578
35.147
37.549
39.783
41.861
43.805
45.64
47.388
49.072
50.709
52.321
53.935
55.581
57.294
59.095
61.001
63.019
65.156
67.412
69.787
72.276
74.866
77.55
80.319
83.166
86.087
89.074
92.115
95.202
98.322
101.465
104.62
107.778
110.928
114.058
117.159
120.221
123.234
126.189
129.073
131.876
134.584
137.186
139.67
142.024
144.236
146.294
148.189
149.909
151.446
152.791
153.936
154.874
155.599
156.104
156.384
156.436
156.256
155.841
155.189
154.301
153.176
151.816
150.222
148.399
146.349
144.078
141.592
138.898
136.002
132.914
129.642
126.197
122.588
118.828
114.928
110.9
106.759
102.517
98.189
93.787
89.327
84.823
80.289
75.739
71.187
66.648
62.135
57.663
53.245
48.894
44.623
40.445
36.37
32.411
28.578
24.88
21.327
17.926
14.686
11.614
8.714
5.992
3.453
1.1
-1.065
-3.041
-4.827
-6.425
-7.834
-9.059
-10.101
-10.965
-11.655
-12.177
-12.537
-12.74
-12.795
-12.709
-12.49
-12.148
-11.69
-11.128
-10.469
-9.725
-8.904
-8.017
-7.072
-6.081
-5.051
-3.993
-2.916
-1.828
-0.738
0.346
1.416
2.466
3.488
4.477
5.427
6.334
7.193
8.001
8.754
9.449
10.086
10.661
11.175
11.626
12.015
12.343
12.611
12.82
12.973
13.071
13.117
13.114
13.065
12.974
12.842
12.675
12.475
12.246
11.991
11.715
11.42
11.11
10.788
10.456
10.118
9.775
9.43
9.085
8.742
8.402
8.066
7.737
7.414
7.099
6.792
6.493
6.202
5.92
5.645
5.378
5.119
4.865
4.618
4.376
4.139
3.906
3.677
3.45
3.226
3.003
2.781
2.56
2.34
2.121
1.902
1.684
1.467
1.253
1.041
0.833
0.629
0.43
0.237
0.051
-0.128
-0.297
-0.457
-0.605
-0.741
-0.864
-0.972
-1.064
-1.14
-1.199
-1.239
-1.262
-1.264
-1.248
-1.21
-1.152
-1.073
-0.972
-0.849
-0.704
-0.536
-0.347
-0.135
0.098
0.353
0.63
0.927
1.245
1.584
1.944
2.325
2.727
3.151
3.597
4.065
4.556
5.07
5.609
6.171
6.759
7.373
8.014
8.683
9.38
10.107
10.863
11.649
12.465
13.311
14.186
15.088
16.016
16.969
17.947
18.947
19.968
21.009
22.067
23.144
24.236
25.342
26.457
27.579
28.704
29.829
30.949
32.061
33.16
34.243
35.312
36.363
37.395
38.402
39.377
40.315
41.215
42.072
42.885
43.654
44.379
45.07
45.738
46.394
47.044
47.689
48.328
48.962
49.598
50.242
50.899
51.57
52.25
52.941
53.645
54.348
55.022
55.628
56.114
56.443
56.596
56.543
56.253
55.689
54.805
53.571
51.975
49.995
47.592
44.755
41.508
37.967
34.346
30.865
27.712
25.092
23.219
22.254
22.262
23.083
24.319
25.531
26.322
26.297
25.054
22.311
17.995
12.479
6.662
1.627
-1.534
-1.58
2.889
13.136
30.324
54.268
82.896
114.113
145.794
177.238
210.269
244.792
277.49
302.525
310.475
293.464
249.907
181.304
92.984
-5.028
-104.175
-193.824
-261.491
-302.756
-317.732
-312.39
-299.234
-284.938
-271.368
-257.716
-239.444
-215.591
-188.584
-160.804
-135.235
-113.595
-95.945
-82.234
-72.186
-65.154
-60.513
-57.803
-56.462
-55.841
-55.381
-54.487
-52.828
-50.509
-47.758
-44.776
-41.835
-39.238
-37.319
-36.484
-36.908
-38.506
-41.108
-44.477
-48.371
-52.551
-56.729
-60.593
-63.95
-66.716
-68.871
-70.445
-71.46
-71.928
-71.893
-71.419
-70.57
-69.403
-67.963
-66.289
-64.438
-62.482
-60.501
-58.553
-56.674
-54.881
-53.176
-51.56
-50.031
-48.572
-47.156
-45.756
-44.345
-42.898
-41.397
-39.816
-38.128
-36.3
-34.302
-32.11
-29.71
-27.095
-24.26
-21.206
-17.934
-14.454
-10.778
-6.919
-2.888
1.304
5.647
10.127
14.73
19.439
24.236
29.105
34.029
38.99
43.971
48.953
53.918
58.849
63.729
68.54
73.262
77.877
82.365
86.707
90.886
94.883
98.681
102.264
105.617
108.725
111.577
114.16
116.465
118.482
120.205
121.628
122.746
123.557
124.059
124.253
124.14
123.725
123.012
122.007
120.718
119.155
117.328
115.249
112.931
110.388
107.636
104.69
101.568
98.287
94.865
91.321
87.675
83.945
80.15
76.312
72.447
68.577
64.719
60.892
57.113
53.4
49.769
46.235
42.812
39.514
36.355
33.344
30.492
27.809
25.303
22.979
20.844
18.901
17.154
15.605
14.254
13.101
12.144
11.381
10.807
10.417
10.208
10.17
10.299
10.585
11.02
11.595
12.299
13.123
14.056
15.087
16.204
17.397
18.654
19.964
21.315
22.698
24.101
25.513
26.925
28.328
29.712
31.068
32.388
33.666
34.893
36.063
37.172
38.212
39.181
40.074
40.887
41.618
42.265
42.825
43.298
43.682
43.979
44.187
44.308
44.344
44.295
44.164
43.954
43.666
43.306
42.874
42.376
41.814
41.192
40.515
39.786
39.008
38.187
37.326
36.429
35.499
34.541
33.558
32.554
31.532
30.495
29.447
28.391
27.33
26.267
25.204
24.144
23.09
22.043
21.006
19.981
18.97
17.974
16.994
16.032
15.088
14.164
13.261
12.378
11.517
10.677
9.858
9.061
8.285
7.53
6.795
6.079
5.382
4.703
4.041
3.394
2.761
2.141
1.532
0.933
0.341
-0.245
-0.827
-1.408
-1.989
-2.574
-3.163
-3.761
-4.368
-4.989
-5.625
-6.28
-6.955
-7.654
-8.378
-9.132
-9.916
-10.733
-11.585
-12.475
-13.403
-14.372
-15.383
-16.437
-17.535
-18.677
-19.864
-21.096
-22.373
-23.693
-25.056
-26.46
-27.903
-29.384
-30.9
-32.448
-34.025
-35.628
-37.254
-38.898
-40.555
-42.221
-43.892
-45.56
-47.221
-48.87
-50.499
-52.104
-53.678
-55.216
-56.711
-58.157
-59.551
-60.885
-62.154
-63.355
-64.483
-65.533
-66.504
-67.391
-68.192
-68.907
-69.534
-70.076
-70.531
-70.901
-71.189
-71.396
-71.526
-71.581
-71.564
-71.478
-71.326
-71.114
-70.848
-70.535
-70.181
-69.792
-69.375
-68.938
-68.487
-68.028
-67.563
-67.096
-66.633
-66.18
-65.75
-65.35
-64.986
-64.666
-64.392
-64.168
-63.993
-63.862
-63.765
-63.691
-63.636
-63.597
-63.576
-63.571
-63.579
-63.593
-63.601
-63.596
-63.575
-63.529
-63.462
-63.387
-63.323
-63.305
-63.379
-63.573
-63.92
-64.455
-65.205
-66.211
-67.505
-69.106
-71.053
-73.398
-76.162
-79.333
-82.814
-86.399
-89.881
-93.065
-95.716
-97.592
-98.505
-98.37
-97.373
-95.965
-94.659
-93.93
-94.225
-95.982
-99.536
-104.987
-111.913
-119.29
-125.814
-130.172
-130.953
-126.587
-115.624
-96.687
-69.857
-37.381
-1.66
34.899
71.536
110.464
151.909
192.176
224.383
237.594
222.771
178.346
107.298
16.419
-84.38
-186.851
-282.287
-358.999
-408.04
-426.173
-415.432
-385.918
-351.22
-318.842
-292.473
-271.638
-250.485
-227.245
-202.61
-177.151
-154.889
-137.788
-125.346
-117.557
-112.802
-109.549
-107.317
-105.248
-102.668
-99.226
-94.683
-89.136
-82.895
-76.266
-69.553
-63.122
-57.405
-52.847
-49.659
-47.795
-47.097
-47.346
-48.333
-49.876
-51.709
-53.489
-54.979
-56.06
-56.677
-56.858
-56.612
-55.918
-54.79
-53.278
-51.431
-49.307
-46.951
-44.382
-41.637
-38.767
-35.833
-32.92
-30.088
-27.368
-24.781
-22.331
-20.02
-17.854
-15.823
-13.899
-12.056
-10.266
-8.506
-6.759
-5.005
-3.218
-1.368
0.579
2.648
4.85
7.196
9.69
12.336
15.135
18.082
21.166
24.375
27.701
31.136
34.673
38.303
42.013
45.789
49.619
53.489
57.386
61.296
65.204
69.097
72.958
76.775
80.534
84.221
87.818
91.312
94.685
97.921
101.006
103.922
106.656
109.194
111.521
113.625
115.497
117.125
118.501
119.617
120.466
121.042
121.342
121.362
121.101
120.556
119.73
118.624
117.241
115.586
113.664
111.482
109.048
106.371
103.462
100.331
96.991
93.456
89.739
85.855
81.821
77.652
73.365
68.978
64.508
59.974
55.393
50.783
46.161
41.545
36.952
32.399
27.901
23.475
19.134
14.893
10.767
6.766
2.905
-0.808
-4.361
-7.745
-10.954
-13.978
-16.813
-19.454
-21.896
-24.137
-26.175
-28.008
-29.639
-31.067
-32.295
-33.327
-34.168
-34.822
-35.296
-35.596
-35.731
-35.709
-35.538
-35.228
-34.789
-34.229
-33.561
-32.792
-31.935
-31
-29.997
-28.937
-27.829
-26.684
-25.51
-24.319
-23.117
-21.915
-20.72
-19.54
-18.383
-17.255
-16.162
-15.111
-14.106
-13.151
-12.252
-11.41
-10.628
-9.909
-9.253
-8.66
-8.132
-7.668
-7.265
-6.924
-6.641
-6.415
-6.243
-6.121
-6.046
-6.014
-6.021
-6.064
-6.137
-6.238
-6.36
-6.501
-6.656
-6.821
-6.99
-7.161
-7.329
-7.489
-7.639
-7.774
-7.891
-7.987
-8.058
-8.104
-8.12
-8.105
-8.058
-7.977
-7.861
-7.709
-7.522
-7.299
-7.04
-6.747
-6.42
-6.06
-5.67
-5.251
-4.805
-4.334
-3.842
-3.329
-2.799
-2.255
-1.699
-1.135
-0.565
0.007
0.579
1.147
1.708
2.26
2.799
3.322
3.827
4.312
4.773
5.209
5.616
5.995
6.341
6.654
6.932
7.174
7.379
7.545
7.673
7.762
7.811
7.82
7.791
7.723
7.617
7.475
7.295
7.081
6.834
6.554
6.244
5.906
5.542
5.154
4.745
4.317
3.873
3.415
2.947
2.47
1.988
1.504
1.02
0.54
0.067
-0.396
-0.846
-1.278
-1.69
-2.077
-2.437
-2.766
-3.06
-3.316
-3.53
-3.7
-3.822
-3.894
-3.913
-3.876
-3.782
-3.629
-3.415
-3.141
-2.804
-2.405
-1.946
-1.428
-0.852
-0.22
0.467
1.206
1.993
2.828
3.708
4.63
5.592
6.59
7.618
8.673
9.748
10.839
11.941
13.045
14.147
15.241
16.327
17.4
18.455
19.487
20.486
21.445
22.362
23.23
24.046
24.808
25.516
26.175
26.796
27.387
27.954
28.494
29.007
29.492
29.954
30.395
30.821
31.229
31.615
31.98
32.324
32.633
32.884
33.038
33.048
32.878
32.508
31.913
31.064
29.931
28.471
26.652
24.468
21.909
18.946
15.573
11.817
7.784
3.687
-0.234
-3.79
-6.807
-9.076
-10.43
-10.805
-10.34
-9.43
-8.609
-8.293
-8.753
-10.456
-13.876
-19.103
-25.888
-33.023
-38.297
-40.557
-39.338
-34.542
-27.364
-16.883
-0.89
22.195
54.684
96.143
143.912
195.058
244.127
284.68
310.242
313.289
288.7
236.05
157.416
59.548
-46.622
-150.508
-239.332
-302.406
-337.042
-345.126
-334.918
-317.464
-298.044
-278.324
-256.813
-229.928
-197.879
-163.212
-128.633
-97.402
-71.087
-49.771
-33.474
-21.73
-13.748
-8.855
-6.403
-5.534
-5.476
-5.529
-4.912
-3.259
-0.631
2.834
6.904
11.202
15.383
19.024
21.598
22.901
22.986
21.957
20.053
17.541
14.652
11.71
9.063
6.894
5.284
4.255
3.755
3.755
4.242
5.157
6.429
7.995
9.799
11.809
13.996
16.303
18.662
20.997
23.25
25.393
27.414
29.306
31.07
32.713
34.249
35.706
37.111
38.486
39.855
41.232
42.639
44.104
45.654
47.319
49.123
51.075
53.183
55.449
57.873
60.45
63.171
66.022
68.989
72.062
75.229
78.48
81.804
85.185
88.607
92.056
95.515
98.969
102.403
105.801
109.147
112.426
115.623
118.726
121.718
124.585
127.311
129.881
132.279
134.491
136.504
138.302
139.875
141.21
142.297
143.128
143.695
143.992
144.013
143.754
143.214
142.391
141.286
139.9
138.236
136.3
134.096
131.632
128.915
125.956
122.765
119.353
115.734
111.92
107.927
103.77
99.464
95.026
90.473
85.823
81.093
76.302
71.468
66.608
61.742
56.887
52.061
47.281
42.564
37.925
33.38
28.943
24.628
20.447
16.413
12.535
8.824
5.287
1.933
-1.233
-4.205
-6.979
-9.553
-11.924
-14.091
-16.056
-17.819
-19.383
-20.75
-21.926
-22.914
-23.72
-24.351
-24.815
-25.118
-25.269
-25.277
-25.151
-24.902
-24.539
-24.072
-23.513
-22.87
-22.156
-21.379
-20.55
-19.678
-18.774
-17.846
-16.904
-15.955
-15.007
-14.068
-13.144
-12.243
-11.369
-10.529
-9.726
-8.966
-8.252
-7.588
-6.976
-6.419
-5.919
-5.477
-5.095
-4.774
-4.514
-4.315
-4.176
-4.097
-4.076
-4.111
-4.202
-4.346
-4.541
-4.785
-5.075
-5.408
-5.782
-6.195
-6.644
-7.126
-7.64
-8.181
-8.749
-9.341
-9.954
-10.587
-11.237
-11.903
-12.583
-13.275
-13.977
-14.687
-15.404
-16.126
-16.851
-17.578
-18.304
-19.029
-19.752
-20.47
-21.183
-21.891
-22.592
-23.285
-23.971
-24.649
-25.318
-25.979
-26.629
-27.271
-27.902
-28.523
-29.134
-29.735
-30.324
-30.903
-31.47
-32.025
-32.567
-33.097
-33.612
-34.112
-34.596
-35.063
-35.513
-35.945
-36.357
-36.749
-37.121
-37.471
-37.798
-38.101
-38.379
-38.629
-38.851
-39.042
-39.201
-39.326
-39.415
-39.466
-39.477
-39.446
-39.371
-39.251
-39.084
-38.867
-38.599
-38.28
-37.907
-37.482
-37.003
-36.471
-35.887
-35.254
-34.574
-33.848
-33.079
-32.27
-31.424
-30.544
-29.634
-28.696
-27.732
-26.748
-25.747
-24.734
-23.716
-22.696
-21.681
-20.677
-19.691
-18.728
-17.795
-16.893
-16.027
-15.202
-14.426
-13.707
-13.052
-12.466
-11.952
-11.513
-11.15
-10.861
-10.638
-10.465
-10.33
-10.221
-10.133
-10.063
-10.007
-9.956
-9.902
-9.839
-9.764
-9.681
-9.59
-9.496
-9.412
-9.363
-9.395
-9.565
-9.925
-10.522
-11.39
-12.557
-14.064
-15.944
-18.227
-20.936
-24.065
-27.601
-31.568
-35.936
-40.624
-45.513
-50.363
-54.9
-58.939
-62.274
-64.635
-65.887
-66.003
-65.051
-63.438
-61.681
-60.095
-58.991
-58.883
-60.11
-62.609
-66.207
-69.651
-70.64
-68.222
-61.961
-51.804
-40.156
-27.527
-11.711
8.975
38.887
80.91
131.37
183.903
227.676
249.792
243.846
209.469
151.733
80.514
2.77
-78.965
-162.252
-244.447
-318.902
-374.238
-402.98
-403.328
-379.376
-343.258
-306.201
-274.766
-252.856
-236.924
-221.157
-202.856
-179.701
-153.711
-129.66
-109.606
-94.791
-84.833
-77.528
-72.02
-67.969
-64.71
-61.924
-59.053
-55.566
-51.487
-46.978
-42.121
-37.093
-32.18
-27.767
-24.341
-22.149
-21.141
-21.17
-22.033
-23.526
-25.435
-27.461
-29.265
-30.637
-31.488
-31.805
-31.625
-30.967
-29.837
-28.279
-26.359
-24.141
-21.679
-19.013
-16.177
-13.223
-10.228
-7.275
-4.427
-1.721
0.822
3.201
5.412
7.457
9.353
11.125
12.799
14.402
15.955
17.476
18.989
20.521
22.106
23.778
25.564
27.48
29.538
31.742
34.098
36.604
39.257
42.045
44.96
47.993
51.138
54.39
57.741
61.18
64.695
68.274
71.905
75.576
79.274
82.985
86.697
90.397
94.071
97.709
101.295
104.816
108.257
111.602
114.837
117.947
120.916
123.731
126.376
128.84
131.109
133.174
135.023
136.647
138.037
139.186
140.086
140.733
141.121
141.247
141.109
140.705
140.035
139.101
137.904
136.449
134.74
132.784
130.587
128.159
125.508
122.645
119.582
116.329
112.901
109.31
105.572
101.701
97.713
93.623
89.448
85.204
80.907
76.573
72.218
67.858
63.51
59.187
54.906
50.682
46.527
42.457
38.484
34.621
30.879
27.269
23.8
20.481
17.321
14.325
11.5
8.85
6.379
4.09
1.984
0.063
-1.675
-3.23
-4.604
-5.802
-6.827
-7.683
-8.376
-8.914
-9.302
-9.548
-9.659
-9.646
-9.516
-9.279
-8.944
-8.522
-8.023
-7.456
-6.833
-6.162
-5.456
-4.722
-3.971
-3.212
-2.454
-1.705
-0.973
-0.265
0.411
1.049
1.644
2.189
2.68
3.114
3.486
3.795
4.037
4.211
4.316
4.352
4.319
4.218
4.049
3.815
3.517
3.159
2.744
2.274
1.755
1.189
0.583
-0.06
-0.734
-1.436
-2.159
-2.899
-3.652
-4.411
-5.173
-5.933
-6.687
-7.431
-8.16
-8.871
-9.561
-10.227
-10.865
-11.475
-12.053
-12.597
-13.108
-13.583
-14.022
-14.426
-14.793
-15.125
-15.422
-15.687
-15.92
-16.123
-16.3
-16.452
-16.583
-16.695
-16.793
-16.878
-16.956
-17.028
-17.099
-17.173
-17.252
-17.34
-17.439
-17.554
-17.686
-17.837
-18.01
-18.206
-18.427
-18.674
-18.946
-19.246
-19.573
-19.927
-20.307
-20.711
-21.14
-21.59
-22.06
-22.547
-23.047
-23.557
-24.073
-24.592
-25.109
-25.618
-26.115
-26.594
-27.051
-27.48
-27.876
-28.233
-28.547
-28.811
-29.023
-29.179
-29.274
-29.306
-29.273
-29.173
-29.006
-28.771
-28.468
-28.096
-27.657
-27.151
-26.581
-25.948
-25.253
-24.499
-23.691
-22.834
-21.933
-20.993
-20.019
-19.019
-18.001
-16.973
-15.943
-14.914
-13.895
-12.89
-11.911
-10.968
-10.07
-9.219
-8.419
-7.672
-6.982
-6.35
-5.772
-5.234
-4.726
-4.238
-3.767
-3.32
-2.894
-2.485
-2.087
-1.693
-1.307
-0.946
-0.619
-0.331
-0.091
0.083
0.155
0.068
-0.23
-0.776
-1.599
-2.717
-4.142
-5.898
-8.012
-10.494
-13.343
-16.546
-20.073
-23.931
-28.148
-32.67
-37.368
-42.02
-46.307
-49.955
-52.784
-54.549
-54.971
-53.98
-51.663
-48.399
-44.948
-41.977
-39.986
-39.529
-41.055
-44.601
-49.846
-55.909
-61.284
-64.413
-63.719
-57.576
-44.41
-24.001
2.065
31.912
63.364
96.079
132.672
173.329
214.098
247.391
261.504
247.795
205.71
139.679
57.513
-32.316
-124.784
-214.833
-293.259
-350.409
-378.381
-374.321
-345.99
-306.871
-269.551
-242.75
-226.801
-215.546
-202.296
-182.612
-156.155
-126.818
-99.48
-77.028
-60.44
-48.868
-40.396
-34.195
-30.092
-27.621
-26.452
-25.946
-25.164
-23.751
-21.726
-19.015
-15.7
-12.03
-8.231
-4.708
-1.972
-0.198
0.659
0.68
0.073
-0.922
-2.12
-3.257
-4.043
-4.341
-4.095
-3.297
-2.013
-0.294
1.827
4.278
6.986
9.895
12.944
16.084
19.268
22.423
25.489
28.425
31.199
33.798
36.222
38.468
40.548
42.487
44.307
46.034
47.689
49.29
50.859
52.423
54.01
55.654
57.379
59.203
61.138
63.194
65.374
67.68
70.108
72.649
75.294
78.037
80.871
83.792
86.792
89.86
92.986
96.159
99.368
102.601
105.846
109.092
112.325
115.533
118.705
121.828
124.89
127.877
130.774
133.566
136.239
138.777
141.167
143.393
145.442
147.301
148.957
150.399
151.617
152.599
153.339
153.827
154.057
154.024
153.723
153.15
152.303
151.181
149.785
148.115
146.176
143.969
141.502
138.78
135.81
132.603
129.167
125.513
121.654
117.603
113.372
108.977
104.433
99.756
94.961
90.067
85.089
80.046
74.954
69.831
64.694
59.56
54.446
49.367
44.34
39.38
34.501
29.718
25.043
20.49
16.071
11.795
7.674
3.715
-0.074
-3.686
-7.114
-10.356
-13.407
-16.265
-18.928
-21.396
-23.67
-25.752
-27.643
-29.348
-30.872
-32.219
-33.396
-34.409
-35.266
-35.975
-36.545
-36.983
-37.299
-37.503
-37.603
-37.61
-37.534
-37.383
-37.168
-36.899
-36.585
-36.235
-35.857
-35.461
-35.053
-34.643
-34.235
-33.838
-33.457
-33.098
-32.766
-32.466
-32.2
-31.973
-31.787
-31.645
-31.548
-31.496
-31.491
-31.532
-31.619
-31.752
-31.928
-32.147
-32.407
-32.706
-33.042
-33.411
-33.812
-34.24
-34.693
-35.169
-35.663
-36.172
-36.694
-37.226
-37.764
-38.306
-38.85
-39.393
-39.932
-40.466
-40.993
-41.51
-42.017
-42.513
-42.996
-43.466
-43.922
-44.365
-44.796
-45.213
-45.618
-46.012
-46.395
-46.768
-47.133
-47.49
-47.84
-48.186
-48.529
-48.87
-49.211
-49.552
-49.897
-50.244
-50.596
-50.954
-51.318
-51.688
-52.064
-52.446
-52.834
-53.228
-53.628
-54.03
-54.436
-54.842
-55.247
-55.648
-56.044
-56.429
-56.802
-57.158
-57.494
-57.805
-58.088
-58.337
-58.549
-58.718
-58.841
-58.912
-58.927
-58.881
-58.77
-58.59
-58.338
-58.009
-57.601
-57.112
-56.539
-55.882
-55.141
-54.316
-53.406
-52.413
-51.339
-50.184
-48.952
-47.645
-46.263
-44.81
-43.291
-41.711
-40.076
-38.391
-36.662
-34.896
-33.101
-31.284
-29.451
-27.606
-25.752
-23.897
-22.049
-20.218
-18.412
-16.638
-14.901
-13.209
-11.565
-9.972
-8.425
-6.915
-5.436
-3.985
-2.565
-1.18
0.17
1.488
2.776
4.037
5.27
6.47
7.641
8.782
9.881
10.911
11.834
12.604
13.184
13.557
13.697
13.576
13.16
12.407
11.285
9.785
7.892
5.582
2.845
-0.288
-3.705
-7.19
-10.495
-13.421
-15.794
-17.442
-18.235
-18.129
-17.284
-16.113
-15.153
-14.849
-15.469
-17.326
-20.739
-25.828
-32.356
-39.014
-43.582
-44.312
-40.395
-32.896
-23.952
-14.184
-2.34
15.674
44.161
84.666
135.696
191.029
243.207
284.354
307.228
308.097
283.424
233.715
161.717
69.547
-34.249
-140.631
-238.339
-312.007
-355.69
-369.449
-359.621
-340.477
-319.812
-299.938
-280.291
-255.781
-225.233
-191.259
-156.439
-124.303
-97.001
-74.73
-57.497
-44.941
-36.282
-30.791
-27.896
-26.857
-26.771
-26.825
-26.214
-24.474
-21.666
-18.007
-13.7
-9.075
-4.546
-0.562
2.36
3.979
4.371
3.692
2.171
0.076
-2.324
-4.716
-6.767
-8.287
-9.224
-9.568
-9.367
-8.664
-7.485
-5.897
-3.99
-1.833
0.513
3.001
5.589
8.214
10.786
13.241
15.531
17.631
19.538
21.248
22.76
24.086
25.254
26.291
27.231
28.102
28.925
29.729
30.545
31.41
32.362
33.432
34.64
36.001
37.526
39.22
41.091
43.136
45.347
47.719
50.245
52.921
55.744
58.707
61.8
65.012
68.332
71.749
75.251
78.826
82.461
86.141
89.855
93.587
97.324
101.05
104.749
108.404
111.995
115.505
118.916
122.21
125.366
128.368
131.199
133.841
136.28
138.499
140.486
142.227
143.71
144.925
145.862
146.513
146.872
146.932
146.691
146.145
145.293
144.137
142.677
140.918
138.864
136.522
133.899
131.006
127.852
124.45
120.812
116.953
112.888
108.633
104.205
99.622
94.902
90.065
85.13
80.115
75.041
69.927
64.792
59.655
54.536
49.451
44.42
39.458
34.584
29.812
25.157
20.633
16.254
12.03
7.974
4.094
0.399
-3.104
-6.408
-9.509
-12.403
-15.087
-17.561
-19.823
-21.876
-23.722
-25.364
-26.806
-28.055
-29.115
-29.996
-30.703
-31.247
-31.636
-31.879
-31.987
-31.971
-31.84
-31.606
-31.281
-30.874
-30.397
-29.862
-29.279
-28.659
-28.011
-27.347
-26.675
-26.006
-25.346
-24.705
-24.091
-23.509
-22.968
-22.472
-22.026
-21.635
-21.303
-21.032
-20.824
-20.682
-20.606
-20.597
-20.655
-20.779
-20.967
-21.22
-21.533
-21.906
-22.335
-22.818
-23.35
-23.928
-24.549
-25.209
-25.902
-26.626
-27.376
-28.148
-28.937
-29.74
-30.553
-31.37
-32.19
-33.007
-33.819
-34.623
-35.416
-36.195
-36.959
-37.706
-38.435
-39.144
-39.832
-40.5
-41.146
-41.77
-42.373
-42.955
-43.516
-44.056
-44.577
-45.08
-45.564
-46.031
-46.482
-46.919
-47.341
-47.749
-48.145
-48.53
-48.903
-49.265
-49.618
-49.961
-50.294
-50.618
-50.933
-51.237
-51.53
-51.81
-52.076
-52.326
-52.558
-52.769
-52.958
-53.12
-53.253
-53.354
-53.42
-53.448
-53.435
-53.378
-53.273
-53.12
-52.914
-52.655
-52.34
-51.969
-51.541
-51.055
-50.512
-49.913
-49.258
-48.548
-47.785
-46.971
-46.108
-45.197
-44.24
-43.242
-42.205
-41.136
-40.039
-38.918
-37.78
-36.631
-35.477
-34.326
-33.183
-32.052
-30.938
-29.845
-28.781
-27.756
-26.774
-25.838
-24.95
-24.112
-23.325
-22.59
-21.901
-21.245
-20.612
-19.996
-19.394
-18.812
-18.246
-17.693
-17.147
-16.6
-16.053
-15.515
-14.989
-14.474
-13.979
-13.518
-13.123
-12.848
-12.731
-12.804
-13.092
-13.602
-14.354
-15.376
-16.691
-18.322
-20.28
-22.545
-25.11
-28.002
-31.193
-34.604
-38.09
-41.375
-44.21
-46.435
-47.877
-48.327
-47.673
-45.937
-43.313
-40.361
-37.663
-35.553
-34.444
-34.818
-36.968
-41.019
-46.183
-50.302
-51.221
-47.306
-39.086
-29.404
-20.379
-13.096
-3.916
14.804
48.687
101.098
167.419
234.927
290.327
321.275
321.109
290.386
232.862
152.794
55.183
-52.414
-160.574
-255.319
-322.887
-358.286
-363.309
-348.059
-326.389
-305.168
-286.081
-266.606
-241.706
-210.88
-176.708
-142.236
-111.135
-85.127
-64.265
-48.542
-37.472
-30.245
-26.171
-24.536
-24.431
-25.07
-25.718
-25.566
-24.231
-21.756
-18.3
-14.133
-9.651
-5.213
-1.243
1.749
3.56
4.227
3.863
2.7
0.995
-1.005
-2.999
-4.673
-5.857
-6.497
-6.581
-6.161
-5.271
-3.941
-2.237
-0.239
1.988
4.396
6.947
9.611
12.333
15.033
17.653
20.153
22.511
24.725
26.793
28.713
30.496
32.167
33.754
35.286
36.785
38.269
39.76
41.283
42.868
44.547
46.345
48.278
50.355
52.583
54.964
57.5
60.186
63.01
65.963
69.035
72.219
75.508
78.891
82.358
85.893
89.485
93.12
96.784
100.463
104.143
107.808
111.445
115.039
118.575
122.04
125.417
128.689
131.84
134.855
137.718
140.412
142.924
145.238
147.341
149.222
150.869
152.271
153.421
154.309
154.93
155.278
155.349
155.141
154.65
153.879
152.826
151.496
149.892
148.018
145.88
143.488
140.848
137.972
134.871
131.556
128.041
124.341
120.469
116.443
112.278
107.99
103.597
99.116
94.565
89.961
85.321
80.664
76.005
71.362
66.75
62.184
57.68
53.252
48.912
44.674
40.55
36.55
32.684
28.962
25.391
21.98
18.734
15.658
12.756
10.031
7.484
5.117
2.928
0.917
-0.919
-2.582
-4.078
-5.411
-6.586
-7.609
-8.488
-9.229
-9.84
-10.329
-10.705
-10.976
-11.151
-11.237
-11.245
-11.181
-11.056
-10.878
-10.653
-10.392
-10.101
-9.788
-9.46
-9.125
-8.788
-8.456
-8.134
-7.827
-7.541
-7.277
-7.041
-6.835
-6.662
-6.524
-6.422
-6.358
-6.333
-6.347
-6.401
-6.495
-6.627
-6.798
-7.007
-7.252
-7.534
-7.851
-8.201
-8.583
-8.998
-9.442
-9.915
-10.416
-10.943
-11.494
-12.07
-12.667
-13.286
-13.925
-14.583
-15.258
-15.951
-16.661
-17.386
-18.125
-18.879
-19.646
-20.425
-21.215
-22.016
-22.826
-23.643
-24.466
-25.295
-26.126
-26.96
-27.793
-28.624
-29.451
-30.271
-31.082
-31.882
-32.667
-33.436
-34.184
-34.909
-35.608
-36.278
-36.915
-37.516
-38.079
-38.599
-39.075
-39.503
-39.88
-40.203
-40.471
-40.682
-40.834
-40.926
-40.958
-40.929
-40.84
-40.694
-40.491
-40.234
-39.925
-39.568
-39.165
-38.72
-38.238
-37.72
-37.172
-36.596
-35.999
-35.385
-34.761
-34.13
-33.5
-32.878
-32.269
-31.68
-31.115
-30.576
-30.067
-29.591
-29.152
-28.758
-28.41
-28.11
-27.861
-27.663
-27.515
-27.416
-27.355
-27.317
-27.293
-27.277
-27.264
-27.258
-27.253
-27.246
-27.236
-27.222
-27.205
-27.189
-27.172
-27.153
-27.143
-27.161
-27.238
-27.417
-27.729
-28.191
-28.813
-29.602
-30.572
-31.745
-33.129
-34.729
-36.54
-38.568
-40.856
-43.415
-46.175
-48.986
-51.597
-53.737
-55.212
-55.832
-55.354
-53.663
-50.833
-47.166
-43.324
-40.04
-37.863
-37.317
-38.892
-42.806
-48.897
-56.473
-64.159
-70.394
-73.661
-72.339
-64.948
-50.134
-27.73
0.615
32.795
66.426
100.423
136.213
173.607
209.316
237.617
249.163
236.074
196.734
132.967
50.098
-43.054
-138.858
-228.659
-301.236
-349.732
-372.556
-372.218
-357.472
-336.353
-310.827
-282.662
-252.761
-221.382
-193.45
-171.168
-152.383
-135.977
-118.892
-99.873
-81.784
-66.254
-54.109
-45.525
-39.082
-33.927
-30.022
-27.373
-25.775
-24.614
-23.443
-22.075
-20.372
-18.333
-15.847
-12.663
-9.031
-5.611
-2.747
-0.581
0.829
1.623
1.817
1.258
0.139
-1.063
-2.048
-2.627
-2.704
-2.358
-1.573
-0.223
1.655
3.899
6.382
8.987
11.646
14.366
17.101
19.756
22.282
24.66
26.886
28.981
30.952
32.792
34.512
36.133
37.681
39.188
40.676
42.162
43.669
45.221
46.845
48.572
50.425
52.417
54.561
56.86
59.318
61.934
64.7
67.608
70.646
73.803
77.068
80.431
83.88
87.403
90.988
94.618
98.279
101.955
105.631
109.292
112.92
116.498
120.005
123.427
126.746
129.946
133.007
135.914
138.647
141.19
143.53
145.65
147.536
149.168
150.528
151.604
152.391
152.887
153.091
153
152.615
151.94
150.984
149.753
148.244
146.45
144.361
141.976
139.304
136.361
133.166
129.729
126.052
122.135
117.986
113.614
109.027
104.219
99.182
93.923
88.471
82.878
77.197
71.465
65.709
59.946
54.197
48.494
42.872
37.363
31.99
26.778
21.761
16.989
12.518
8.377
4.565
1.053
-2.189
-5.172
-7.9
-10.374
-12.604
-14.605
-16.39
-17.964
-19.327
-20.487
-21.465
-22.299
-23.031
-23.683
-24.253
-24.722
-25.076
-25.311
-25.43
-25.436
-25.325
-25.097
-24.757
-24.322
-23.812
-23.238
-22.604
-21.906
-21.136
-20.301
-19.414
-18.496
-17.564
-16.631
-15.709
-14.811
-13.95
-13.14
-12.385
-11.683
-11.033
-10.436
-9.896
-9.418
-9.005
-8.658
-8.378
-8.162
-8.008
-7.916
-7.883
-7.904
-7.974
-8.09
-8.248
-8.447
-8.685
-8.958
-9.264
-9.597
-9.956
-10.336
-10.734
-11.144
-11.563
-11.987
-12.412
-12.835
-13.255
-13.669
-14.074
-14.469
-14.853
-15.224
-15.582
-15.924
-16.252
-16.564
-16.861
-17.143
-17.409
-17.661
-17.899
-18.124
-18.337
-18.539
-18.73
-18.913
-19.088
-19.257
-19.422
-19.583
-19.742
-19.901
-20.062
-20.225
-20.394
-20.568
-20.749
-20.937
-21.133
-21.337
-21.549
-21.768
-21.995
-22.228
-22.466
-22.708
-22.952
-23.197
-23.44
-23.679
-23.912
-24.136
-24.348
-24.547
-24.73
-24.895
-25.038
-25.159
-25.255
-25.324
-25.364
-25.372
-25.347
-25.288
-25.191
-25.057
-24.884
-24.672
-24.422
-24.136
-23.813
-23.457
-23.069
-22.651
-22.207
-21.739
-21.249
-20.738
-20.211
-19.671
-19.123
-18.572
-18.021
-17.475
-16.939
-16.416
-15.909
-15.42
-14.949
-14.496
-14.064
-13.655
-13.28
-12.945
-12.656
-12.418
-12.234
-12.105
-12.032
-12.012
-12.034
-12.09
-12.174
-12.281
-12.413
-12.57
-12.746
-12.935
-13.122
-13.29
-13.432
-13.542
-13.624
-13.685
-13.74
-13.81
-13.928
-14.132
-14.462
-14.958
-15.656
-16.587
-17.779
-19.27
-21.126
-23.388
-26.044
-29.014
-32.126
-35.185
-38.015
-40.436
-42.211
-43.162
-43.233
-42.598
-41.718
-41.161
-41.46
-43.03
-46.223
-51.395
-58.603
-67.319
-76.622
-84.621
-89.221
-89.513
-84.168
-72.965
-56.741
-34.456
-6.506
26.703
66.224
110.296
157.274
204.517
245.121
272.69
279.943
259.808
210.998
134.181
34.562
-75.915
-184.82
-276.878
-339.134
-368.973
-369.71
-351.696
-327.937
-304.324
-282.395
-260.151
-233.29
-201.77
-168.262
-135.815
-108.118
-86.812
-71.486
-61.361
-55.347
-52.276
-51.169
-51.037
-50.636
-48.949
-45.606
-40.604
-34.201
-26.882
-19.118
-11.381
-4.351
1.328
5.372
7.734
8.573
8.186
6.814
4.687
2.135
-0.476
-2.872
-4.884
-6.451
-7.59
-8.302
-8.569
-8.391
-7.798
-6.83
-5.538
-3.964
-2.14
-0.097
2.12
4.45
6.818
9.147
11.384
13.503
15.489
17.336
19.037
20.592
22.016
23.337
24.584
25.786
26.964
28.138
29.332
30.576
31.904
33.348
34.931
36.664
38.556
40.613
42.838
45.229
47.781
50.481
53.316
56.277
59.355
62.543
65.827
69.192
72.625
76.109
79.63
83.171
86.718
90.252
93.759
97.22
100.622
103.948
107.182
110.307
113.305
116.159
118.853
121.368
123.69
125.801
127.688
129.337
130.736
131.875
132.743
133.333
133.637
133.65
133.368
132.788
131.908
130.729
129.252
127.481
125.42
123.075
120.454
117.566
114.42
111.03
107.407
103.566
99.52
95.287
90.883
86.325
81.632
76.823
71.916
66.932
61.891
56.812
51.716
46.622
41.55
36.517
31.543
26.645
21.839
17.143
12.57
8.137
3.855
-0.263
-4.204
-7.961
-11.522
-14.882
-18.034
-20.972
-23.692
-26.193
-28.473
-30.531
-32.369
-33.988
-35.392
-36.585
-37.572
-38.36
-38.957
-39.369
-39.607
-39.68
-39.598
-39.371
-39.011
-38.529
-37.935
-37.242
-36.461
-35.604
-34.682
-33.706
-32.689
-31.639
-30.569
-29.488
-28.405
-27.33
-26.271
-25.235
-24.231
-23.264
-22.342
-21.468
-20.649
-19.889
-19.19
-18.556
-17.989
-17.49
-17.059
-16.697
-16.404
-16.178
-16.018
-15.922
-15.887
-15.911
-15.992
-16.125
-16.308
-16.537
-16.808
-17.117
-17.46
-17.834
-18.234
-18.657
-19.098
-19.555
-20.023
-20.499
-20.979
-21.461
-21.941
-22.417
-22.885
-23.344
-23.79
-24.223
-24.64
-25.041
-25.424
-25.789
-26.135
-26.462
-26.771
-27.062
-27.336
-27.592
-27.832
-28.057
-28.268
-28.466
-28.652
-28.826
-28.991
-29.148
-29.296
-29.439
-29.575
-29.706
-29.833
-29.957
-30.078
-30.196
-30.312
-30.426
-30.537
-30.646
-30.753
-30.856
-30.955
-31.048
-31.135
-31.213
-31.282
-31.338
-31.379
-31.403
-31.407
-31.387
-31.343
-31.269
-31.164
-31.024
-30.848
-30.631
-30.372
-30.068
-29.718
-29.32
-28.871
-28.372
-27.821
-27.219
-26.564
-25.859
-25.103
-24.3
-23.452
-22.562
-21.632
-20.668
-19.672
-18.651
-17.608
-16.547
-15.473
-14.392
-13.31
-12.233
-11.169
-10.124
-9.106
-8.121
-7.178
-6.284
-5.443
-4.659
-3.936
-3.278
-2.692
-2.186
-1.767
-1.439
-1.204
-1.064
-1.019
-1.064
-1.19
-1.383
-1.629
-1.917
-2.24
-2.595
-2.974
-3.368
-3.767
-4.157
-4.532
-4.888
-5.217
-5.521
-5.811
-6.108
-6.455
-6.9
-7.488
-8.254
-9.228
-10.444
-11.939
-13.755
-15.922
-18.446
-21.335
-24.608
-28.261
-32.258
-36.485
-40.722
-44.742
-48.365
-51.407
-53.679
-55.029
-55.344
-54.731
-53.589
-52.303
-51.153
-50.452
-50.491
-51.57
-54.092
-57.402
-59.666
-59.434
-55.311
-47.952
-40.523
-33.863
-27.403
-17.927
1.785
34.74
80.73
136.77
193.917
245.085
283.97
304.191
302.866
276.535
224.038
146.084
45.496
-68.583
-184.931
-287.59
-360.354
-396.146
-394.491
-365.692
-327.096
-291.361
-266.127
-251.04
-238.369
-221.501
-197.254
-166.488
-134.257
-105.85
-83.985
-69.041
-59.654
-53.746
-50.074
-47.988
-46.733
-45.621
-43.893
-41.049
-37.093
-32.235
-26.746
-20.95
-15.242
-10.123
-6.123
-3.5
-2.207
-2.081
-2.881
-4.378
-6.346
-8.459
-10.356
-11.81
-12.722
-13.077
-12.916
-12.257
-11.1
-9.488
-7.495
-5.194
-2.651
0.088
2.987
5.999
9.052
12.061
14.957
17.7
20.269
22.661
24.873
26.901
28.755
30.46
32.043
33.537
34.967
36.353
37.721
39.1
40.524
42.03
43.646
45.389
47.272
49.301
51.482
53.819
56.31
58.946
61.718
64.62
67.646
70.792
74.049
77.407
80.853
84.374
87.959
91.594
95.268
98.965
102.671
106.372
110.054
113.702
117.302
120.836
124.287
127.638
130.872
133.97
136.917
139.695
142.287
144.677
146.852
148.798
150.501
151.949
153.132
154.04
154.666
155.001
155.04
154.778
154.214
153.344
152.17
150.693
148.916
146.844
144.482
141.839
138.923
135.745
132.316
128.65
124.76
120.663
116.372
111.907
107.284
102.521
97.639
92.655
87.591
82.465
77.298
72.109
66.919
61.747
56.611
51.531
46.524
41.607
36.798
32.111
27.563
23.166
18.934
14.879
11.01
7.337
3.868
0.61
-2.433
-5.255
-7.855
-10.231
-12.383
-14.312
-16.02
-17.511
-18.789
-19.86
-20.729
-21.405
-21.896
-22.21
-22.357
-22.348
-22.193
-21.904
-21.491
-20.967
-20.343
-19.632
-18.845
-17.995
-17.094
-16.152
-15.182
-14.194
-13.198
-12.206
-11.226
-10.267
-9.337
-8.443
-7.593
-6.792
-6.046
-5.359
-4.735
-4.178
-3.689
-3.271
-2.924
-2.65
-2.448
-2.317
-2.257
-2.265
-2.339
-2.478
-2.677
-2.934
-3.245
-3.606
-4.013
-4.462
-4.948
-5.467
-6.014
-6.585
-7.175
-7.779
-8.395
-9.016
-9.64
-10.263
-10.882
-11.493
-12.093
-12.681
-13.254
-13.81
-14.348
-14.867
-15.365
-15.842
-16.299
-16.734
-17.148
-17.542
-17.916
-18.272
-18.61
-18.933
-19.24
-19.536
-19.82
-20.095
-20.363
-20.627
-20.887
-21.146
-21.406
-21.67
-21.939
-22.214
-22.498
-22.793
-23.098
-23.416
-23.747
-24.092
-24.449
-24.82
-25.203
-25.599
-26.005
-26.421
-26.845
-27.276
-27.711
-28.148
-28.585
-29.019
-29.446
-29.863
-30.268
-30.656
-31.025
-31.37
-31.688
-31.976
-32.231
-32.449
-32.627
-32.761
-32.85
-32.889
-32.878
-32.815
-32.696
-32.523
-32.293
-32.007
-31.668
-31.276
-30.834
-30.344
-29.809
-29.232
-28.618
-27.97
-27.291
-26.584
-25.855
-25.107
-24.346
-23.579
-22.809
-22.044
-21.291
-20.554
-19.841
-19.155
-18.498
-17.873
-17.285
-16.737
-16.238
-15.792
-15.405
-15.08
-14.823
-14.632
-14.506
-14.436
-14.409
-14.412
-14.439
-14.479
-14.53
-14.583
-14.632
-14.673
-14.702
-14.711
-14.696
-14.651
-14.576
-14.485
-14.405
-14.367
-14.42
-14.601
-14.948
-15.5
-16.295
-17.373
-18.766
-20.502
-22.586
-25.028
-27.862
-31.084
-34.637
-38.4
-42.149
-45.636
-48.663
-51.043
-52.536
-52.994
-52.411
-50.937
-49.042
-47.326
-46.203
-45.99
-47.075
-49.744
-53.983
-59.466
-64.67
-67.223
-65.408
-58.229
-46.639
-32.787
-17.826
-1.658
18.983
47.959
87.212
137.293
192.584
244.085
282.992
298.001
282.385
235.592
158.993
60.321
-49.343
-160.071
-259.454
-335.277
-380.519
-392.868
-376.477
-343.989
-308.607
-278.475
-258.065
-243.715
-227.955
-207.773
-181.497
-151.332
-123.089
-99.386
-81.326
-68.82
-59.692
-52.704
-47.603
-43.854
-40.976
-38.445
-35.494
-31.77
-27.419
-22.614
-17.492
-12.319
-7.437
-3.241
-0.199
1.494
1.94
1.295
-0.22
-2.364
-4.891
-7.485
-9.806
-11.647
-12.924
-13.616
-13.754
-13.353
-12.422
-11.006
-9.174
-6.993
-4.52
-1.801
1.121
4.184
7.305
10.393
13.379
16.221
18.897
21.397
23.715
25.852
27.819
29.643
31.348
32.962
34.506
35.999
37.465
38.933
40.438
42.014
43.688
45.474
47.384
49.422
51.591
53.891
56.316
58.853
61.492
64.226
67.045
69.946
72.917
75.949
79.028
82.143
85.281
88.432
91.582
94.72
97.832
100.907
103.933
106.899
109.792
112.597
115.302
117.892
120.352
122.669
124.829
126.819
128.626
130.238
131.644
132.836
133.804
134.539
135.036
135.289
135.293
135.044
134.541
133.781
132.765
131.494
129.969
128.195
126.175
123.916
121.423
118.705
115.771
112.632
109.297
105.779
102.091
98.248
94.262
90.15
85.927
81.609
77.213
72.754
68.251
63.719
59.175
54.636
50.116
45.632
41.199
36.831
32.542
28.344
24.251
20.274
16.424
12.711
9.144
5.731
2.48
-0.604
-3.515
-6.25
-8.804
-11.177
-13.367
-15.374
-17.201
-18.848
-20.319
-21.619
-22.751
-23.723
-24.54
-25.209
-25.739
-26.137
-26.412
-26.572
-26.628
-26.589
-26.463
-26.261
-25.992
-25.665
-25.289
-24.874
-24.428
-23.959
-23.476
-22.986
-22.496
-22.013
-21.543
-21.092
-20.665
-20.267
-19.9
-19.569
-19.277
-19.024
-18.813
-18.644
-18.517
-18.433
-18.39
-18.388
-18.425
-18.498
-18.606
-18.746
-18.916
-19.111
-19.33
-19.569
-19.825
-20.096
-20.377
-20.667
-20.962
-21.26
-21.558
-21.855
-22.148
-22.436
-22.716
-22.988
-23.251
-23.504
-23.747
-23.978
-24.199
-24.41
-24.612
-24.804
-24.989
-25.167
-25.339
-25.507
-25.671
-25.834
-25.997
-26.16
-26.326
-26.496
-26.67
-26.85
-27.037
-27.23
-27.431
-27.639
-27.854
-28.075
-28.301
-28.531
-28.763
-28.997
-29.229
-29.458
-29.681
-29.896
-30.099
-30.288
-30.459
-30.61
-30.737
-30.837
-30.908
-30.946
-30.95
-30.918
-30.847
-30.737
-30.587
-30.396
-30.163
-29.888
-29.572
-29.215
-28.818
-28.381
-27.905
-27.393
-26.846
-26.27
-25.666
-25.04
-24.394
-23.734
-23.065
-22.393
-21.723
-21.056
-20.396
-19.749
-19.12
-18.519
-17.95
-17.415
-16.918
-16.458
-16.038
-15.657
-15.309
-14.98
-14.661
-14.344
-14.027
-13.715
-13.404
-13.09
-12.769
-12.431
-12.078
-11.718
-11.355
-10.99
-10.637
-10.31
-10.047
-9.902
-9.919
-10.132
-10.574
-11.257
-12.204
-13.445
-15.002
-16.9
-19.147
-21.724
-24.623
-27.858
-31.398
-35.163
-39.014
-42.696
-45.979
-48.708
-50.71
-51.782
-51.803
-50.763
-48.808
-46.408
-44.043
-41.981
-40.604
-40.367
-41.563
-44.381
-48.111
-50.842
-50.892
-46.91
-39.425
-31.008
-22.964
-16.028
-7.349
9.647
39.082
83.932
141.854
202.754
255.905
289.853
294.893
268.415
212.117
130.166
31.361
-73.53
-174.419
-259.178
-317.933
-348.095
-351.222
-334.44
-309.78
-285.429
-265.359
-251.152
-238.598
-223.153
-203.606
-178.789
-150.536
-122.75
-97.336
-75.701
-58.256
-43.886
-32.019
-22.624
-15.725
-11.421
-9.323
-8.712
-8.836
-9.012
-8.931
-8.425
-7.335
-5.686
-3.655
-1.493
0.426
1.718
2.261
2.072
1.24
-0.014
-1.481
-2.978
-4.272
-5.147
-5.498
-5.287
-4.532
-3.312
-1.692
0.268
2.494
4.916
7.473
10.11
12.771
15.395
17.93
20.34
22.602
24.709
26.657
28.447
30.092
31.622
33.064
34.449
35.801
37.137
38.48
39.858
41.301
42.84
44.5
46.294
48.234
50.327
52.578
54.986
57.548
60.249
63.08
66.031
69.093
72.26
75.52
78.861
82.268
85.728
89.226
92.751
96.286
99.816
103.328
106.806
110.236
113.604
116.897
120.097
123.189
126.157
128.985
131.657
134.159
136.474
138.589
140.491
142.168
143.609
144.803
145.742
146.419
146.826
146.958
146.811
146.383
145.672
144.678
143.402
141.847
140.016
137.915
135.55
132.928
130.058
126.95
123.615
120.064
116.31
112.367
108.249
103.971
99.549
94.999
90.339
85.584
80.754
75.866
70.936
65.984
61.026
56.079
51.16
46.286
41.473
36.735
32.088
27.545
23.119
18.824
14.669
10.667
6.825
3.153
-0.342
-3.653
-6.775
-9.703
-12.435
-14.968
-17.3
-19.432
-21.364
-23.097
-24.636
-25.983
-27.142
-28.121
-28.924
-29.559
-30.033
-30.355
-30.534
-30.58
-30.501
-30.309
-30.014
-29.626
-29.156
-28.614
-28.012
-27.36
-26.668
-25.946
-25.203
-24.45
-23.695
-22.946
-22.212
-21.5
-20.816
-20.168
-19.561
-19
-18.49
-18.034
-17.636
-17.298
-17.023
-16.81
-16.661
-16.577
-16.555
-16.595
-16.694
-16.851
-17.062
-17.325
-17.634
-17.987
-18.378
-18.804
-19.258
-19.738
-20.237
-20.751
-21.275
-21.804
-22.334
-22.86
-23.377
-23.883
-24.373
-24.843
-25.291
-25.713
-26.108
-26.472
-26.804
-27.104
-27.369
-27.6
-27.796
-27.957
-28.085
-28.18
-28.244
-28.278
-28.286
-28.27
-28.233
-28.177
-28.107
-28.026
-27.937
-27.845
-27.752
-27.662
-27.579
-27.506
-27.447
-27.404
-27.381
-27.38
-27.403
-27.453
-27.532
-27.641
-27.78
-27.95
-28.152
-28.385
-28.649
-28.943
-29.267
-29.617
-29.993
-30.392
-30.812
-31.248
-31.697
-32.156
-32.619
-33.082
-33.541
-33.99
-34.424
-34.839
-35.23
-35.592
-35.921
-36.211
-36.459
-36.66
-36.811
-36.909
-36.951
-36.934
-36.856
-36.718
-36.518
-36.258
-35.938
-35.558
-35.121
-34.629
-34.084
-33.489
-32.846
-32.157
-31.427
-30.661
-29.864
-29.042
-28.2
-27.345
-26.483
-25.623
-24.77
-23.93
-23.106
-22.303
-21.524
-20.778
-20.072
-19.411
-18.798
-18.237
-17.73
-17.281
-16.887
-16.541
-16.231
-15.948
-15.686
-15.442
-15.217
-15.007
-14.806
-14.61
-14.414
-14.221
-14.034
-13.849
-13.665
-13.491
-13.345
-13.263
-13.29
-13.46
-13.8
-14.334
-15.082
-16.076
-17.348
-18.92
-20.804
-22.993
-25.478
-28.285
-31.408
-34.784
-38.293
-41.716
-44.832
-47.504
-49.593
-50.896
-51.293
-50.764
-49.44
-47.771
-46.213
-44.999
-44.429
-44.884
-46.629
-49.858
-53.886
-56.82
-56.946
-53.02
-45.83
-38.289
-32.095
-27.607
-21.047
-5.151
24.751
70.553
127.145
183.315
228.741
254.144
256.26
236.478
196.029
137.967
62.919
-27.124
-124.349
-219.319
-298.515
-350.312
-372.399
-368.217
-347.523
-321.667
-295.765
-270.939
-245.33
-216.017
-183.598
-150.48
-119.405
-93.117
-72.545
-57.479
-47.397
-41.226
-37.935
-36.752
-36.736
-37.05
-37.029
-36.006
-33.715
-30.291
-25.979
-21.096
-16.063
-11.252
-7.05
-3.895
-1.943
-1.126
-1.312
-2.274
-3.758
-5.522
-7.289
-8.766
-9.796
-10.329
-10.348
-9.896
-9.003
-7.691
-6.018
-4.058
-1.871
0.498
3.011
5.639
8.328
10.999
13.592
16.067
18.398
20.584
22.619
24.499
26.233
27.845
29.36
30.806
32.208
33.581
34.949
36.336
37.774
39.297
40.93
42.691
44.592
46.64
48.84
51.195
53.703
56.353
59.137
62.047
65.077
68.222
71.473
74.818
78.246
81.744
85.298
88.897
92.527
96.173
99.823
103.461
107.074
110.649
114.171
117.623
120.989
124.252
127.395
130.402
133.255
135.939
138.437
140.735
142.818
144.673
146.287
147.649
148.748
149.576
150.123
150.383
150.351
150.022
149.394
148.465
147.236
145.709
143.885
141.771
139.371
136.693
133.745
130.538
127.083
123.392
119.478
115.356
111.043
106.553
101.906
97.118
92.208
87.195
82.099
76.939
71.734
66.505
61.271
56.051
50.864
45.728
40.663
35.685
30.81
26.055
21.435
16.963
12.653
8.516
4.562
0.801
-2.758
-6.108
-9.245
-12.163
-14.859
-17.332
-19.58
-21.604
-23.406
-24.989
-26.357
-27.515
-28.469
-29.225
-29.792
-30.178
-30.392
-30.445
-30.347
-30.108
-29.742
-29.259
-28.672
-27.992
-27.233
-26.406
-25.523
-24.597
-23.639
-22.659
-21.67
-20.681
-19.702
-18.743
-17.813
-16.919
-16.069
-15.27
-14.528
-13.848
-13.235
-12.694
-12.226
-11.836
-11.524
-11.293
-11.143
-11.073
-11.084
-11.175
-11.342
-11.584
-11.898
-12.28
-12.727
-13.234
-13.796
-14.41
-15.069
-15.769
-16.504
-17.269
-18.058
-18.867
-19.69
-20.521
-21.355
-22.189
-23.016
-23.832
-24.634
-25.417
-26.178
-26.912
-27.618
-28.292
-28.933
-29.536
-30.102
-30.629
-31.116
-31.561
-31.966
-32.33
-32.655
-32.94
-33.189
-33.402
-33.583
-33.732
-33.854
-33.95
-34.025
-34.08
-34.12
-34.147
-34.165
-34.177
-34.187
-34.197
-34.211
-34.231
-34.26
-34.301
-34.355
-34.424
-34.51
-34.614
-34.736
-34.877
-35.038
-35.218
-35.418
-35.635
-35.868
-36.116
-36.377
-36.647
-36.923
-37.202
-37.48
-37.753
-38.016
-38.264
-38.493
-38.698
-38.874
-39.017
-39.121
-39.181
-39.193
-39.153
-39.057
-38.902
-38.684
-38.4
-38.05
-37.632
-37.146
-36.593
-35.972
-35.286
-34.536
-33.724
-32.855
-31.932
-30.956
-29.933
-28.866
-27.761
-26.625
-25.463
-24.282
-23.09
-21.894
-20.704
-19.526
-18.368
-17.233
-16.126
-15.054
-14.023
-13.044
-12.124
-11.265
-10.474
-9.755
-9.113
-8.546
-8.047
-7.602
-7.201
-6.836
-6.502
-6.201
-5.928
-5.676
-5.441
-5.214
-4.997
-4.79
-4.588
-4.388
-4.197
-4.031
-3.933
-3.954
-4.137
-4.518
-5.115
-5.944
-7.039
-8.425
-10.131
-12.183
-14.567
-17.283
-20.382
-23.856
-27.631
-31.562
-35.34
-38.628
-41.216
-42.887
-43.366
-42.544
-40.479
-37.44
-34.149
-31.444
-29.866
-29.821
-31.827
-36.132
-42.438
-50.127
-57.265
-60.754
-59.039
-51.379
-37.593
-20.326
-0.507
23.698
53.415
92.529
143.798
203.232
263.491
312.978
338.125
331.273
291.904
224.671
137.527
38.571
-65.94
-169.184
-260.828
-329.886
-368.713
-374.201
-351.892
-314.141
-271.926
-235.41
-210.016
-193.254
-181.419
-168.838
-150.697
-127.638
-102.28
-78.475
-59.417
-45.495
-35.517
-27.87
-21.659
-16.668
-12.873
-10.254
-8.355
-6.562
-4.664
-2.562
-0.164
2.432
5.13
7.816
10.173
11.856
12.744
12.846
12.236
11.11
9.675
8.106
6.642
5.534
4.908
4.819
5.276
6.225
7.615
9.406
11.524
13.888
16.439
19.123
21.893
24.702
27.478
30.16
32.71
35.101
37.326
39.385
41.276
43.011
44.618
46.123
47.556
48.942
50.297
51.645
53.012
54.427
55.924
57.528
59.254
61.117
63.123
65.278
67.583
70.035
72.623
75.338
78.172
81.119
84.172
87.324
90.562
93.874
97.249
100.675
104.138
107.627
111.128
114.625
118.108
121.561
124.973
128.33
131.616
134.817
137.916
140.897
143.747
146.448
148.986
151.347
153.516
155.482
157.232
158.757
160.046
161.091
161.885
162.422
162.697
162.705
162.444
161.914
161.113
160.044
158.708
157.11
155.253
153.145
150.791
148.201
145.384
142.349
139.108
135.673
132.056
128.273
124.336
120.261
116.064
111.76
107.366
102.899
98.374
93.808
89.217
84.618
80.025
75.453
70.918
66.433
62.012
57.667
53.411
49.254
45.208
41.282
37.485
33.824
30.308
26.943
23.733
20.684
17.799
15.08
12.53
10.149
7.937
5.894
4.017
2.304
0.752
-0.645
-1.89
-2.99
-3.951
-4.779
-5.481
-6.064
-6.537
-6.907
-7.181
-7.368
-7.475
-7.512
-7.484
-7.401
-7.27
-7.099
-6.894
-6.663
-6.413
-6.15
-5.881
-5.611
-5.346
-5.092
-4.854
-4.636
-4.442
-4.276
-4.141
-4.04
-3.976
-3.949
-3.962
-4.015
-4.11
-4.245
-4.421
-4.638
-4.894
-5.19
-5.523
-5.894
-6.299
-6.738
-7.21
-7.712
-8.244
-8.802
-9.387
-9.995
-10.625
-11.275
-11.943
-12.627
-13.325
-14.035
-14.755
-15.483
-16.215
-16.952
-17.689
-18.426
-19.16
-19.89
-20.614
-21.329
-22.035
-22.729
-23.41
-24.076
-24.725
-25.356
-25.966
-26.555
-27.12
-27.66
-28.172
-28.654
-29.105
-29.522
-29.902
-30.244
-30.544
-30.802
-31.014
-31.178
-31.293
-31.357
-31.368
-31.325
-31.227
-31.072
-30.861
-30.593
-30.267
-29.884
-29.445
-28.95
-28.401
-27.8
-27.15
-26.454
-25.714
-24.934
-24.118
-23.27
-22.395
-21.497
-20.579
-19.645
-18.702
-17.754
-16.807
-15.868
-14.942
-14.035
-13.155
-12.309
-11.501
-10.737
-10.019
-9.35
-8.735
-8.178
-7.687
-7.267
-6.918
-6.645
-6.449
-6.329
-6.283
-6.3
-6.365
-6.465
-6.591
-6.736
-6.899
-7.072
-7.25
-7.425
-7.59
-7.742
-7.88
-8
-8.104
-8.2
-8.308
-8.472
-8.745
-9.175
-9.805
-10.658
-11.756
-13.137
-14.829
-16.86
-19.242
-21.949
-24.98
-28.377
-32.138
-36.199
-40.408
-44.491
-48.203
-51.401
-53.89
-55.409
-55.786
-54.987
-53.263
-51.169
-49.17
-47.604
-46.919
-47.641
-50.15
-53.959
-57.547
-59.213
-57.895
-54.591
-51.305
-48.074
-42.895
-31.505
-9.139
25.155
68.915
118.346
168.186
212.639
246.273
261.816
251.984
214.934
152.588
69.941
-23.743
-120.479
-212.955
-290.673
-345.096
-372.646
-373.634
-356.001
-332.25
-309.232
-290.243
-275.122
-257.87
-236.381
-211.286
-182.751
-154.74
-129.893
-108.661
-92.002
-79.105
-68.826
-60.902
-54.999
-50.811
-47.937
-45.715
-43.426
-40.715
-37.602
-34.178
-30.524
-26.817
-23.305
-20.311
-18.263
-17.341
-17.462
-18.495
-20.233
-22.438
-24.894
-27.335
-29.462
-31.104
-32.2
-32.731
-32.74
-32.272
-31.349
-30.034
-28.408
-26.537
-24.48
-22.29
-20
-17.666
-15.355
-13.114
-10.98
-8.972
-7.087
-5.321
-3.662
-2.079
-0.542
0.981
2.527
4.125
5.79
7.531
9.336
11.175
13.032
14.893
16.74
18.55
20.276
21.873
23.303
24.555
25.614
26.42
26.913
27.078
27.001
26.889
26.975
27.425
28.414
30.216
33.056
37.044
42.011
47.421
52.797
57.684
61.428
63.27
62.336
59.062
55.978
55.856
60.878
69.04
73.32
69.173
56.729
45.242
53.813
96.992
179.124
