Name,Waqar Muhammad
Date of Birth,"Jul 5, 1993"
Recorded Date,2023-11-23 22:09:53 -0500
Classification,Sinus Rhythm
Symptoms,
Software Version,1.90
Device,"Watch6,7"
Sample Rate,512 hertz


Lead,Lead I
Unit,µV

17.173
18.443
19.896
21.555
23.457
25.629
28.159
31.218
34.876
39.126
43.865
48.849
53.944
59.166
64.494
69.903
75.446
81.178
87.359
94.498
102.759
111.956
121.77
131.687
141.165
149.746
156.69
160.996
162.096
159.865
154.379
145.977
135.11
122.279
108.357
94.567
81.811
70.616
61.46
54.729
50.559
48.882
49.195
50.542
52.195
53.73
54.65
54.455
52.851
49.708
45.246
40.078
34.614
29.031
23.522
18.226
13.222
8.589
4.233
-0.117
-4.599
-9.237
-14.006
-18.79
-23.5
-28.11
-32.553
-36.75
-40.667
-44.275
-47.589
-50.66
-53.494
-56.084
-58.431
-60.528
-62.406
-64.131
-65.762
-67.386
-69.114
-71.047
-73.323
-76.077
-79.4
-83.374
-88.02
-93.349
-99.439
-106.327
-113.96
-122.163
-130.599
-138.902
-146.82
-154.059
-160.216
-164.974
-168.124
-169.851
-170.79
-171.553
-172.728
-174.93
-178.66
-184.446
-192.065
-199.671
-204.953
-205.698
-201.005
-193.005
-183.55
-171.895
-155.076
-126.474
-79.918
-15.425
63.533
150.33
235.554
313.387
377.061
416.137
420.598
378.87
284.825
143.384
-31.641
-217.135
-388.105
-525.336
-617.419
-664.025
-672.613
-651.016
-607.257
-548.486
-480.371
-412.727
-355.537
-313.158
-285.878
-267.238
-248.108
-225.017
-198.357
-171.906
-151.005
-136.952
-128.525
-123.388
-118.485
-112.352
-104.607
-95.33
-85.163
-74.646
-64.125
-54.095
-45.023
-37.343
-31.585
-27.876
-25.968
-25.527
-26.111
-27.338
-28.938
-30.583
-31.868
-32.486
-32.266
-31.124
-29.083
-26.17
-22.375
-17.739
-12.338
-6.302
0.209
7.045
14.071
21.196
28.352
35.473
42.494
49.348
55.993
62.408
68.593
74.54
80.242
85.691
90.893
95.888
100.729
105.47
110.171
114.869
119.585
124.341
129.148
134.01
138.921
143.864
148.808
153.731
158.615
163.438
168.183
172.824
177.331
181.678
185.839
189.793
193.519
196.994
200.195
203.095
205.677
207.933
209.869
211.492
212.824
213.896
214.739
215.388
215.872
216.201
216.372
216.361
216.145
215.699
215.017
214.116
213.014
211.725
210.254
208.599
206.735
204.619
202.192
199.383
196.142
192.456
188.359
183.933
179.292
174.566
169.853
165.214
160.697
156.332
152.142
148.15
144.399
140.959
137.936
135.474
133.701
132.703
132.508
133.063
134.253
135.922
137.939
140.208
142.654
145.248
147.985
150.871
153.918
157.092
160.295
163.362
166.112
168.371
169.994
170.92
171.162
170.781
169.839
168.37
166.38
163.812
160.563
156.499
151.452
145.303
138.014
129.622
120.215
109.911
98.845
87.089
74.659
61.528
47.636
32.956
17.498
1.343
-15.371
-32.442
-49.606
-66.64
-83.378
-99.711
-115.587
-130.987
-145.925
-160.375
-174.279
-187.539
-200.006
-211.559
-222.111
-231.633
-240.156
-247.776
-254.656
-260.937
-266.731
-272.118
-277.133
-281.795
-286.1
-290.056
-293.682
-297.036
-300.218
-303.315
-306.399
-309.503
-312.623
-315.708
-318.669
-321.427
-323.91
-326.07
-327.885
-329.344
-330.451
-331.215
-331.651
-331.753
-331.492
-330.844
-329.787
-328.318
-326.455
-324.234
-321.704
-318.916
-315.921
-312.76
-309.46
-306.04
-302.51
-298.876
-295.135
-291.294
-287.369
-283.374
-279.33
-275.254
-271.16
-267.057
-262.95
-258.839
-254.721
-250.599
-246.477
-242.37
-238.302
-234.297
-230.373
-226.551
-222.844
-219.258
-215.794
-212.438
-209.168
-205.968
-202.82
-199.717
-196.66
-193.642
-190.664
-187.729
-184.818
-181.925
-179.052
-176.206
-173.42
-170.747
-168.232
-165.941
-163.957
-162.35
-161.214
-160.638
-160.693
-161.449
-162.926
-165.15
-168.189
-172.049
-176.663
-181.834
-187.188
-192.332
-196.989
-200.83
-203.475
-204.668
-204.272
-202.554
-200.219
-197.971
-196.347
-195.869
-197.084
-200.356
-205.847
-212.436
-217.54
-218.693
-213.557
-201.528
-184.748
-164.423
-140.856
-112.871
-74.443
-20.762
49.663
136.186
229.622
317.558
389.224
433.001
442.78
416.46
351.854
250.921
118.519
-35.817
-195.192
-340.41
-452.962
-521.552
-545.923
-533.035
-496.728
-450.2
-401.828
-358.51
-320.631
-285.638
-251.501
-213.301
-169.922
-124.066
-78.937
-39.946
-10.175
10.589
23.573
31.056
34.7
35.551
34.692
33.198
32.308
32.741
34.592
37.782
42.008
46.779
51.674
56.127
59.531
61.736
62.815
62.923
62.368
61.452
60.495
59.908
60.085
61.218
63.36
66.484
70.495
75.315
80.83
86.865
93.206
99.661
106.122
112.535
118.866
125.075
131.096
136.871
142.385
147.639
152.633
157.364
161.822
166.004
169.946
173.696
177.31
180.847
184.337
187.796
191.239
194.672
198.094
201.503
204.878
208.19
211.42
214.551
217.568
220.459
223.198
225.758
228.113
230.236
232.099
233.681
234.958
235.908
236.514
236.764
236.644
236.148
235.266
233.987
232.304
230.209
227.696
224.759
221.398
217.61
213.398
208.768
203.727
198.287
192.462
186.267
179.72
172.843
165.658
158.19
150.466
142.514
134.367
126.056
117.615
109.081
100.49
91.88
83.289
74.756
66.32
58.017
49.888
41.967
34.293
26.9
19.823
13.094
6.745
0.805
-4.7
-9.742
-14.301
-18.356
-21.892
-24.893
-27.349
-29.252
-30.597
-31.384
-31.612
-31.287
-30.416
-29.009
-27.079
-24.642
-21.716
-18.322
-14.483
-10.224
-5.572
-0.556
4.795
10.449
16.374
22.538
28.906
35.445
42.12
48.897
55.743
62.624
69.506
76.358
83.149
89.848
96.427
102.859
109.117
115.179
121.022
126.625
131.971
137.043
141.828
146.314
150.49
154.35
157.887
161.098
163.98
166.534
168.761
170.663
172.247
173.518
174.483
175.152
175.534
175.641
175.485
175.078
174.433
173.565
172.488
171.216
169.765
168.15
166.388
164.494
162.485
160.374
158.179
155.913
153.591
151.227
148.832
146.419
144
141.585
139.185
136.809
134.467
132.166
129.915
127.721
125.593
123.534
121.551
119.648
117.828
116.095
114.454
112.905
111.453
110.099
108.845
107.694
106.646
105.7
104.855
104.108
103.457
102.899
102.431
102.048
101.747
101.524
101.377
101.304
101.302
101.365
101.49
101.672
101.906
102.186
102.503
102.85
103.218
103.603
104
104.403
104.809
105.215
105.62
106.022
106.421
106.812
107.193
107.557
107.903
108.235
108.552
108.861
109.167
109.48
109.809
110.17
110.566
110.995
111.45
111.913
112.376
112.838
113.291
113.736
114.182
114.65
115.178
115.81
116.566
117.452
118.471
119.613
120.885
122.308
123.891
125.657
127.636
129.849
132.336
135.137
138.227
141.532
144.929
148.267
151.456
154.454
157.185
159.573
161.561
163.155
164.522
165.902
167.46
169.287
171.483
174.208
177.654
181.891
186.598
191.186
195.04
197.538
198.142
196.265
191.244
183.25
173.815
164.878
158.703
156.446
157.255
160.821
167.754
180.324
202.542
238.228
289.625
356.235
435.408
521.055
603.91
673.02
716.125
722.521
685.752
605.336
485.896
337.492
174.678
13.342
-129.334
-239.321
-309.168
-339.138
-336.21
-309.368
-268.407
-219.645
-167.888
-119.451
-76.697
-41.349
-13.094
12.738
37.33
60.042
79.668
92.607
98.097
97.859
93.866
89.181
85.966
85.011
86.614
90.405
95.781
102.206
109.066
115.65
121.244
125.222
127.351
127.844
127.089
125.51
123.456
121.178
118.979
117.221
116.173
115.994
116.725
118.306
120.701
123.901
127.853
132.459
137.568
142.969
148.5
154.072
159.627
165.139
170.574
175.876
181.001
185.917
190.609
195.062
199.254
203.151
206.743
210.042
213.096
215.977
218.738
221.404
223.989
226.494
228.918
231.263
233.512
235.639
237.62
239.44
241.087
242.56
243.849
244.937
245.803
246.422
246.773
246.842
246.609
246.062
245.188
243.978
242.43
240.545
238.325
235.77
232.879
229.651
226.089
222.196
217.974
213.428
208.563
203.389
197.916
192.157
186.127
179.841
173.315
166.567
159.616
152.481
145.181
137.737
130.17
122.499
114.746
106.931
99.077
91.203
83.331
75.48
67.671
59.921
52.248
44.669
37.2
29.853
22.643
15.582
8.68
1.949
-4.603
-10.968
-17.138
-23.109
-28.876
-34.436
-39.788
-44.931
-49.867
-54.595
-59.118
-63.436
-67.553
-71.472
-75.194
-78.72
-82.052
-85.194
-88.146
-90.912
-93.491
-95.883
-98.089
-100.11
-101.948
-103.601
-105.068
-106.348
-107.439
-108.34
-109.049
-109.559
-109.864
-109.957
-109.832
-109.487
-108.916
-108.114
-107.077
-105.799
-104.28
-102.526
-100.537
-98.306
-95.829
-93.097
-90.12
-86.926
-83.537
-79.966
-76.232
-72.354
-68.358
-64.286
-60.155
-55.96
-51.701
-47.372
-42.995
-38.618
-34.282
-30.028
-25.877
-21.818
-17.861
-14.039
-10.359
-6.814
-3.392
-0.055
3.163
6.153
8.836
11.141
13.038
14.553
15.69
16.435
16.782
16.717
16.232
15.343
14.004
12.117
9.604
6.377
2.448
-2.045
-7.016
-12.409
-18.189
-24.371
-30.948
-37.87
-45.139
-52.794
-60.831
-69.234
-77.89
-86.582
-95.139
-103.41
-111.319
-118.897
-126.131
-132.961
-139.344
-145.221
-150.537
-155.271
-159.33
-162.545
-164.827
-166.142
-166.543
-166.199
-165.231
-163.718
-161.723
-159.262
-156.375
-153.133
-149.58
-145.737
-141.643
-137.341
-132.926
-128.564
-124.353
-120.34
-116.532
-112.872
-109.336
-105.933
-102.657
-99.502
-96.464
-93.527
-90.698
-87.998
-85.425
-82.962
-80.574
-78.207
-75.848
-73.507
-71.192
-68.914
-66.677
-64.492
-62.41
-60.486
-58.764
-57.282
-56.066
-55.184
-54.751
-54.885
-55.694
-57.252
-59.568
-62.666
-66.647
-71.564
-77.38
-83.891
-90.681
-97.35
-103.635
-109.248
-113.821
-117.041
-118.726
-119.179
-119.224
-119.69
-121.368
-125.003
-131.151
-140.344
-152.193
-164.63
-175.12
-180.918
-180.527
-175.483
-166.632
-153.199
-132.905
-99.195
-46.763
25.199
115.275
215.682
315.678
405.53
472.888
508.332
504.902
456.797
365.232
233.794
71.664
-104.294
-276.132
-422.862
-527.934
-586.254
-600.804
-582.256
-544.09
-495.834
-443.248
-391.079
-342.198
-298.19
-260.586
-227.335
-195.337
-164.399
-135.066
-109.762
-91.95
-81.878
-78.227
-79.245
-82.016
-84.728
-86.593
-86.77
-85.17
-82.134
-77.892
-72.862
-67.734
-63.043
-59.299
-57.025
-56.229
-56.678
-58.169
-60.397
-63.066
-65.923
-68.602
-70.678
-71.948
-72.346
-71.871
-70.607
-68.587
-65.857
-62.551
-58.866
-55.021
-51.163
-47.356
-43.617
-39.96
-36.421
-33.051
-29.895
-26.955
-24.228
-21.719
-19.436
-17.395
-15.589
-13.973
-12.477
-11.018
-9.542
-8.019
-6.432
-4.768
-3.019
-1.178
0.747
2.732
4.758
6.813
8.89
10.984
13.084
15.165
17.201
19.164
21.03
22.774
24.375
25.805
27.043
28.071
28.872
29.435
29.744
29.781
29.529
28.969
28.087
26.868
25.298
23.362
21.047
18.344
15.247
11.751
7.855
3.555
-1.149
-6.25
-11.737
-17.591
-23.795
-30.335
-37.199
-44.37
-51.831
-59.558
-67.531
-75.731
-84.136
-92.716
-101.436
-110.247
-119.099
-127.951
-136.764
-145.505
-154.134
-162.6
-170.838
-178.785
-186.384
-193.585
-200.35
-206.636
-212.399
-217.599
-222.231
-226.325
-229.907
-232.999
-235.526
-237.317
-238.308
-238.534
-238.049
-236.994
-235.48
-233.448
-231.2
-229.476
-228.581
-228.72
-229.581
-229.553
-228.075
-225.821
-223.637
-223.877
-226.915
-229.092
-226.138
-212.594
-185.831
-150.906
-115.096
-86.364
-70.515
-64.35
-62.098
-59.438
-52.885
-45.535
-40.962
-37.97
-34.993
-27.881
-14.458
1.527
16.37
26.63
31.27
33.229
34.729
37.035
40.403
43.725
46.69
49.54
52.44
55.698
59.358
63.299
67.589
72.313
77.463
82.998
88.817
94.793
100.878
107.061
113.323
119.652
126.018
132.387
138.739
145.058
151.326
157.534
163.666
169.704
175.654
181.538
187.402
193.319
199.338
205.487
211.786
218.245
224.872
231.677
238.659
245.801
253.093
260.529
268.103
275.813
283.649
291.594
299.624
307.715
315.841
323.979
332.104
340.194
348.226
356.179
364.032
371.765
379.356
386.779
394.007
401.013
407.766
414.227
420.358
426.117
431.47
436.385
440.83
444.777
448.201
451.083
453.409
455.17
456.358
456.962
456.974
456.382
455.19
453.412
451.073
448.216
444.872
441.059
436.784
432.037
426.81
421.113
414.942
408.253
401.057
393.382
385.33
377.133
368.909
360.635
352.281
343.757
334.913
325.664
315.751
304.625
292.026
277.97
262.572
246.296
229.627
212.831
196.476
181.552
168.777
158.7
151.648
147.27
145.219
145.452
147.543
150.576
153.509
155.015
154.017
150.215
143.323
132.804
118.343
100.008
78.396
54.88
30.726
6.667
-16.533
-37.933
-56.347
-70.552
-79.817
-84.147
-83.625
-77.563
-64.746
-44.263
-15.852
18.035
52.708
85.008
112.477
136.698
163.822
197.32
239.308
287.693
333.255
366.26
376.57
353.692
291.927
190.455
51.94
-112.737
-286.682
-452.727
-592.312
-692.484
-750.415
-768.515
-754.697
-720.716
-675.691
-627.856
-585.716
-551.573
-524.849
-502.735
-477.914
-447.69
-413.503
-378.249
-347.838
-325.333
-310.232
-301.185
-295.857
-292.581
-290.756
-289.851
-289.174
-287.959
-285.813
-282.717
-278.83
-274.57
-270.369
-266.569
-263.685
-262.189
-262.162
-263.507
-265.969
-269.102
-272.523
-275.856
-278.673
-280.615
-281.475
-281.152
-279.635
-276.979
-273.229
-268.463
-262.784
-256.298
-249.124
-241.351
-233.081
-224.448
-215.57
-206.556
-197.498
-188.442
-179.424
-170.476
-161.615
-152.835
-144.132
-135.481
-126.863
-118.278
-109.709
-101.141
-92.548
-83.888
-75.137
-66.291
-57.353
-48.338
-39.269
-30.17
-21.076
-12.04
-3.107
5.677
14.269
22.635
30.737
38.531
45.973
53.021
59.636
65.786
71.438
76.563
81.134
85.13
88.532
91.332
93.516
95.075
96
96.285
95.93
94.935
93.304
91.043
88.16
84.67
80.59
75.943
70.75
65.036
58.83
52.162
45.063
37.567
29.705
21.509
13.015
4.257
-4.726
-13.9
-23.229
-32.675
-42.198
-51.76
-61.325
-70.858
-80.33
-89.709
-98.963
-108.063
-116.985
-125.705
-134.201
-142.449
-150.421
-158.093
-165.449
-172.481
-179.187
-185.56
-191.583
-197.239
-202.515
-207.39
-211.846
-215.846
-219.341
-222.291
-224.668
-226.451
-227.633
-228.193
-228.09
-227.295
-225.782
-223.539
-220.578
-216.913
-212.555
-207.55
-201.973
-195.91
-189.473
-182.748
-175.797
-168.691
-161.509
-154.328
-147.235
-140.306
-133.608
-127.158
-120.884
-114.629
-108.158
-101.197
-93.493
-84.773
-74.677
-63.014
-49.866
-35.518
-20.51
-5.326
9.855
24.835
39.268
53.076
66.598
80.632
96.563
115.652
138.591
166.126
199.092
237.987
283.005
333.643
388.475
446.072
504.442
559.983
609.148
649.078
679.627
705.315
730.138
753.736
769.13
762.137
720.323
641.794
538.152
432.503
349.164
301.812
289.515
300.23
319.816
340.537
361.274
383.998
407.783
426.3
434.033
428.798
413.492
395.854
380.966
370.17
362.346
354.108
343.746
331.574
318.521
306.146
295.285
285.803
277.149
268.438
259.151
249.166
238.469
227.137
215.14
202.487
189.373
176.074
162.799
149.635
136.558
123.497
110.445
97.415
84.411
71.452
58.549
45.738
33.081
20.625
8.391
-3.641
-15.518
-27.271
-38.905
-50.405
-61.727
-72.851
-83.795
-94.566
-105.176
-115.664
-126.059
-136.438
-146.929
-157.61
-168.523
-179.677
-191.025
-202.535
-214.206
-226.034
-238.022
-250.148
-262.32
-274.436
-286.404
-298.13
-309.574
-320.579
-330.832
-340.001
-347.678
-353.619
-357.771
-359.81
-359.29
-356.085
-350.107
-342.192
-333.869
-325.475
-317.458
-309.533
-300.709
-292.231
-284.862
-279.479
-277.933
-279.044
-281.073
-281.472
-273.735
-252.875
-216.209
-161.483
-92.541
-14.835
68.478
150.974
227.393
292.111
335.083
348.184
324.752
260.472
157.201
21.489
-134.133
-291.468
-430.85
-534.484
-592.632
-606.623
-584.993
-541.619
-489.911
-437.798
-391.776
-354.868
-326.175
-305.197
-288.036
-269.717
-249.408
-227.259
-205.524
-188.386
-176.773
-169.891
-166.701
-165.033
-163.725
-162.66
-161.343
-159.299
-156.392
-152.491
-147.531
-141.718
-135.235
-128.174
-120.891
-113.852
-107.208
-100.975
-95.129
-89.522
-84.081
-78.798
-73.52
-68.033
-62.252
-56.163
-49.812
-43.304
-36.69
-29.998
-23.292
-16.652
-10.157
-3.855
2.243
8.155
13.891
19.454
24.843
30.06
35.12
40.04
44.827
49.484
54.008
58.397
62.658
66.799
70.826
74.739
78.536
82.211
85.762
89.182
92.465
95.604
98.586
101.402
104.046
106.509
108.784
110.863
112.738
114.399
115.837
117.044
118.008
118.718
119.162
119.331
119.214
118.802
118.086
117.06
115.716
114.049
112.056
109.733
107.078
104.09
100.769
97.119
93.141
88.841
84.225
79.301
74.077
68.563
62.773
56.718
50.412
43.87
37.109
30.147
23.001
15.692
8.24
0.667
-7.005
-14.752
-22.549
-30.373
-38.198
-46
-53.754
-61.436
-69.02
-76.484
-83.805
-90.959
-97.926
-104.685
-111.215
-117.499
-123.52
-129.262
-134.71
-139.852
-144.677
-149.174
-153.336
-157.156
-160.628
-163.751
-166.52
-168.936
-171.001
-172.718
-174.09
-175.125
-175.83
-176.215
-176.291
-176.07
-175.565
-174.792
-173.765
-172.503
-171.023
-169.344
-167.483
-165.462
-163.301
-161.018
-158.635
-156.172
-153.649
-151.084
-148.497
-145.905
-143.327
-140.778
-138.275
-135.831
-133.46
-131.174
-128.986
-126.903
-124.935
-123.089
-121.37
-119.783
-118.328
-117.007
-115.818
-114.758
-113.822
-113.004
-112.296
-111.687
-111.167
-110.722
-110.339
-110.002
-109.693
-109.395
-109.088
-108.753
-108.368
-107.914
-107.37
-106.714
-105.925
-104.985
-103.871
-102.567
-101.052
-99.308
-97.318
-95.065
-92.534
-89.71
-86.58
-83.13
-79.351
-75.234
-70.771
-65.957
-60.788
-55.263
-49.381
-43.143
-36.553
-29.615
-22.336
-14.726
-6.795
1.442
9.97
18.771
27.828
37.12
46.625
56.323
66.191
76.208
86.351
96.597
106.924
117.309
127.727
138.155
148.569
158.942
169.251
179.468
189.571
199.535
209.342
218.971
228.407
237.633
246.635
255.4
263.916
272.171
280.156
287.859
295.272
302.398
309.24
315.805
322.108
328.151
333.934
339.475
344.779
349.825
354.587
359.04
363.155
366.94
370.425
373.6
376.457
379.1
381.651
384.086
386.426
388.696
390.709
392.986
396.053
399.201
402.237
403.87
402.546
400.054
397.585
396.893
400.324
405.659
410.989
414.961
415.452
413.888
411.699
409.103
406.95
404.761
401.952
398.852
395.568
392.221
389.121
386.534
384.626
383.395
382.582
381.48
379.187
375.003
368.173
357.614
343.384
327.103
310.532
296.358
285.659
275.459
264.284
253.042
245.182
250.951
279.364
333.264
412.078
505.96
600.508
683.317
740.071
760.982
741.362
677.696
573.048
434.122
270.667
98.942
-63.305
-199.669
-297.274
-352.452
-369.932
-357.218
-323.676
-277.713
-224.589
-171.434
-125.192
-88.845
-63.532
-45.919
-30.156
-14.263
1.583
15.241
23.091
24.545
20.901
14.226
7.441
2.27
-0.519
-0.645
1.44
5.227
10.299
15.959
21.503
26.259
29.503
30.983
30.878
29.432
26.959
23.76
20.03
16.047
12.156
8.505
5.131
2.031
-0.849
-3.442
-5.653
-7.478
-8.951
-10.174
-11.295
-12.381
-13.46
-14.605
-15.846
-17.228
-18.806
-20.529
-22.345
-24.246
-26.223
-28.34
-30.663
-33.193
-35.933
-38.852
-41.881
-44.997
-48.162
-51.252
-54.182
-56.849
-59.126
-61.026
-62.528
-63.538
-64.008
-63.846
-62.967
-61.393
-59.103
-56.027
-52.2
-47.665
-42.562
-37.269
-32.03
-26.959
-22.259
-18.008
-14.233
-11.08
-8.404
-5.74
-2.947
-0.111
2.584
4.594
5.4
4.717
1.914
-3.971
-13.525
-27.1
-44.714
-65.701
-89.355
-115.174
-142.282
-169.406
-195.324
-218.66
-238.295
-253.922
-265.365
-272.426
-275.329
-274.628
-271.172
-266.335
-261.402
-257.043
-253.791
-251.999
-251.678
-252.767
-254.936
-257.46
-259.742
-261.499
-262.568
-262.991
-262.937
-262.486
-261.795
-261.1
-260.491
-259.959
-259.427
-258.744
-257.801
-256.555
-254.973
-253.043
-250.796
-248.268
-245.506
-242.554
-239.414
-236.085
-232.572
-228.891
-225.083
-221.204
-217.321
-213.496
-209.789
-206.244
-202.889
-199.738
-196.792
-194.046
-191.488
-189.117
-186.936
-184.952
-183.173
-181.604
-180.244
-179.085
-178.115
-177.317
-176.673
-176.163
-175.772
-175.485
-175.289
-175.175
-175.136
-175.162
-175.246
-175.376
-175.54
-175.726
-175.923
-176.118
-176.303
-176.466
-176.602
-176.702
-176.764
-176.784
-176.76
-176.688
-176.569
-176.402
-176.187
-175.924
-175.617
-175.267
-174.876
-174.449
-173.989
-173.502
-172.992
-172.464
-171.923
-171.373
-170.817
-170.258
-169.698
-169.138
-168.577
-168.017
-167.457
-166.895
-166.33
-165.76
-165.18
-164.587
-163.975
-163.339
-162.672
-161.965
-161.211
-160.403
-159.531
-158.59
-157.571
-156.468
-155.272
-153.977
-152.577
-151.064
-149.433
-147.679
-145.796
-143.781
-141.633
-139.353
-136.945
-134.414
-131.767
-129.011
-126.156
-123.215
-120.196
-117.11
-113.969
-110.78
-107.557
-104.313
-101.064
-97.827
-94.621
-91.463
-88.372
-85.364
-82.454
-79.654
-76.974
-74.418
-71.993
-69.708
-67.578
-65.63
-63.887
-62.36
-61.061
-59.991
-59.148
-58.525
-58.103
-57.847
-57.721
-57.692
-57.734
-57.838
-58.003
-58.218
-58.458
-58.675
-58.824
-58.887
-58.873
-58.788
-58.643
-58.448
-58.228
-58.07
-58.096
-58.414
-59.117
-60.259
-61.83
-63.86
-66.446
-69.647
-73.449
-77.674
-81.951
-85.933
-89.391
-92.056
-93.588
-93.662
-92.071
-89.089
-85.489
-82.079
-79.67
-79.002
-80.635
-85.142
-92.276
-100.219
-106.642
-108.876
-105.272
-97.069
-85.173
-69.061
-46.823
-12.358
39.795
110.845
199.708
299.058
398.421
488.587
557.832
597.062
599.18
557.163
470.697
342.38
180.953
3.656
-170.391
-319.499
-427.38
-488.639
-506.846
-493.343
-459.224
-412.234
-356.497
-294.534
-232.54
-177.283
-133.707
-103.702
-82.921
-65.572
-49.038
-32.839
-19.359
-11.699
-9.806
-11.811
-15.274
-17.439
-16.927
-13.786
-8.465
-1.623
6.006
13.801
21.159
27.375
31.845
34.427
35.329
34.899
33.571
31.69
29.499
27.326
25.542
24.398
24.06
24.58
25.912
28.042
30.981
34.689
39.083
44.033
49.355
54.911
60.633
66.479
72.435
78.48
84.573
90.686
96.803
102.919
109.03
115.119
121.161
127.148
133.093
139.036
145.04
151.145
157.368
163.713
170.17
176.728
183.378
190.094
196.837
203.571
210.264
216.884
223.407
229.796
236.007
241.99
247.692
253.066
258.071
262.663
266.805
270.465
273.611
276.215
278.25
279.681
280.481
280.63
280.121
278.953
277.143
274.719
271.715
268.175
264.135
259.622
254.65
249.217
243.318
236.951
230.13
222.889
215.263
207.283
198.977
190.369
181.465
172.253
162.713
152.808
142.532
131.91
121.01
109.937
98.816
87.801
77.02
66.578
56.579
47.107
38.241
30.053
22.631
16.064
10.451
5.914
2.529
0.346
-0.635
-0.458
0.803
3.03
6.124
9.989
14.523
19.639
25.264
31.332
37.776
44.548
51.593
58.834
66.23
73.726
81.269
88.824
96.351
103.822
111.182
118.398
125.455
132.344
139.057
145.554
151.78
157.638
163.011
167.794
171.846
175.057
177.366
178.739
179.182
178.743
177.505
175.505
172.75
169.215
164.842
159.643
153.668
147.009
139.806
132.22
124.458
116.729
109.182
101.906
94.946
88.292
81.913
75.854
70.194
65.064
60.652
57.068
54.371
52.596
51.71
51.653
52.315
53.553
55.286
57.48
60.146
63.344
67.116
71.415
76.163
81.208
86.325
91.391
96.318
100.914
105.019
108.63
111.747
114.374
116.649
118.016
117.92
117.043
115.702
115.315
117.428
120.359
123.041
123.637
119.67
112.99
104.854
96.167
88.945
81.865
73.792
65.028
55.254
45.638
37.762
32.117
29.141
29.108
31.919
37.519
45.897
56.831
70.002
85.107
101.587
118.612
135.297
150.696
163.841
173.657
178.846
178.454
172.794
163.302
151.461
138.311
122.982
103.907
82.442
62.53
50.813
54.305
75.07
109.897
151.932
193.466
229.532
259.024
283.058
302.349
316.855
325.766
327.8
323.372
314.182
302.013
289.35
278.22
269.467
263.789
261.65
262.711
266.521
272.42
278.821
284.472
288.794
291.178
291.339
289.304
284.922
278.315
270.257
261.269
251.63
241.71
231.594
221.286
210.71
199.416
186.749
171.983
154.36
133.126
107.394
77.378
45.398
14.186
-13.262
-35.94
-57.629
-81.085
-105.855
-127.661
-133.826
-112.348
-58.521
26.918
131.179
236.036
326.59
387.349
409.23
388.037
318.878
203.005
44.993
-144.905
-346.46
-536.91
-693.252
-798.667
-849.588
-852.366
-819.913
-766.917
-704.698
-640.96
-582.579
-535.452
-502.146
-482.839
-471.813
-459.487
-440.682
-412.894
-379.676
-349.696
-327.21
-314.508
-310.625
-310.173
-310.148
-308.665
-304.25
-297.946
-290.428
-281.443
-271.034
-259.012
-245.456
-231.48
-218.509
-207.241
-198.057
-191.262
-187.047
-185.862
-187.941
-192.766
-199.47
-207.465
-216.427
-226.2
-236.624
-247.217
-257.475
-267.208
-276.496
-285.438
-293.884
-301.59
-308.401
-314.397
-320.03
-325.727
-331.494
-337.214
-342.865
-348.329
-353.363
-357.344
-358.886
-356.59
-349.716
-337.736
-320.203
-296.721
-266.814
-230.684
-189.692
-145.518
-99.407
-52.467
-5.956
38.345
77.99
110.925
136.117
153.184
161.692
161.086
151.421
133.788
110.348
83.653
55.883
28.711
3.952
-16.269
-30.537
-38.374
-40.168
-37.089
-30.349
-20.976
-10.361
-0.272
8.016
13.753
16.66
17.042
15.253
11.599
6.687
1.323
-3.928
-8.737
-12.989
-16.825
-20.37
-23.71
-27.041
-30.611
-34.563
-38.946
-43.724
-48.784
-54.032
-59.408
-64.832
-70.212
-75.492
-80.649
-85.68
-90.606
-95.442
-100.184
-104.833
-109.393
-113.864
-118.244
-122.529
-126.703
-130.753
-134.668
-138.436
-142.049
-145.493
-148.757
-151.822
-154.671
-157.281
-159.63
-161.694
-163.453
-164.883
-165.963
-166.676
-167.005
-166.939
-166.476
-165.606
-164.324
-162.614
-160.455
-157.834
-154.75
-151.214
-147.258
-142.899
-138.141
-132.983
-127.419
-121.456
-115.131
-108.447
-101.37
-93.921
-86.154
-78.219
-70.38
-62.76
-55.311
-47.962
-40.61
-33.108
-25.345
-16.988
-7.456
3.488
15.717
28.897
42.432
55.8
68.66
80.39
90.102
97.325
101.99
104.41
105.343
105.349
104.708
103.89
103.505
103.893
105.168
107.087
109.017
110.539
111.484
111.64
110.817
108.896
105.795
101.624
96.684
91.166
85.155
78.716
71.863
64.642
57.138
49.399
41.444
33.314
25.073
16.795
8.582
0.526
-7.29
-14.768
-21.8
-28.292
-34.161
-39.343
-43.815
-47.58
-50.633
-53.012
-54.81
-56.053
-56.723
-56.736
-55.914
-54.127
-51.393
-47.798
-43.352
-38.194
-32.733
-27.443
-22.883
-19.623
-17.286
-15.26
-13.997
-13.251
-13.589
-15.662
-16.696
-14.675
-7.207
8.395
30.059
55.831
83.774
110.797
137.129
162.93
187.16
209.645
228.979
243.672
253.661
259.146
260.622
258.983
255.076
249.453
242.692
235.494
228.131
220.603
212.846
204.495
195.118
184.66
173.145
160.483
146.758
132.051
116.398
100.061
83.35
66.414
49.349
32.201
15.024
-1.955
-18.361
-33.773
-47.763
-59.991
-70.121
-77.696
-82.406
-84.135
-83.042
-79.804
-75.252
-70.152
-65.295
-61.355
-58.761
-57.674
-57.655
-57.39
-54.525
-45.916
-28.583
0.115
40.319
89.713
146.314
207.53
274.123
350.243
437.543
536.536
641.741
740.941
822.075
872.188
881.961
847.548
766.601
641.457
479.219
292.49
101.674
-70.577
-205.343
-292.647
-335.372
-344.585
-333.565
-313.337
-288.754
-261.934
-234.025
-204.971
-175.656
-145.342
-112.968
-79.898
-48.348
-21.928
-3.543
6.581
9.653
7.683
2.28
-5.379
-14.18
-23.015
-30.654
-36.536
-40.785
-43.686
-45.617
-47.084
-48.6
-50.822
-54.512
-59.894
-66.719
-74.615
-83.148
-91.953
-100.751
-109.15
-116.63
-122.826
-127.574
-130.818
-132.614
-133.012
-131.998
-129.612
-125.976
-121.231
-115.565
-109.165
-102.138
-94.566
-86.537
-78.121
-69.419
-60.548
-51.557
-42.47
-33.299
-24.024
-14.661
-5.241
4.225
13.727
23.29
32.971
42.804
52.808
63.005
73.397
84.014
94.918
106.099
117.497
129.008
140.469
151.76
162.806
173.535
183.899
193.829
203.22
211.991
220.072
227.38
233.838
239.33
243.69
246.835
248.755
249.499
249.207
247.975
245.851
242.89
239.133
234.633
229.463
223.672
217.283
210.351
202.944
195.172
187.203
179.136
171.02
162.86
154.599
146.214
137.717
129.11
120.396
111.587
102.691
93.747
84.823
75.964
67.196
58.522
49.917
41.382
32.949
24.659
16.575
8.749
1.214
-5.99
-12.819
-19.243
-25.239
-30.804
-35.954
-40.699
-45.039
-48.975
-52.502
-55.622
-58.349
-60.698
-62.685
-64.329
-65.652
-66.676
-67.431
-67.942
-68.231
-68.319
-68.22
-67.954
-67.539
-66.995
-66.341
-65.596
-64.779
-63.908
-63.005
-62.086
-61.168
-60.265
-59.389
-58.551
-57.761
-57.028
-56.357
-55.754
-55.221
-54.761
-54.374
-54.059
-53.811
-53.626
-53.499
-53.422
-53.386
-53.382
-53.399
-53.427
-53.455
-53.472
-53.466
-53.425
-53.337
-53.189
-52.971
-52.67
-52.273
-51.768
-51.145
-50.392
-49.501
-48.462
-47.267
-45.909
-44.383
-42.683
-40.807
-38.751
-36.515
-34.1
-31.51
-28.75
-25.829
-22.756
-19.541
-16.197
-12.739
-9.183
-5.545
-1.843
1.906
5.681
9.46
13.222
16.943
20.6
24.171
27.628
30.942
34.087
37.035
39.759
42.234
44.434
46.337
47.922
49.176
50.087
50.642
50.829
50.638
50.059
49.091
47.736
46
43.894
41.439
38.66
35.591
32.263
28.69
24.885
20.847
16.576
12.085
7.381
2.467
-2.626
-7.868
-13.212
-18.597
-24.005
-29.438
-34.891
-40.374
-45.864
-51.299
-56.642
-61.825
-66.731
-71.315
-75.561
-79.492
-83.305
-87.191
-91.291
-95.841
-100.942
-106.396
-111.881
-116.84
-120.487
-122.295
-121.812
-118.49
-112.197
-103.28
-92.401
-80.734
-69.607
-59.958
-52.809
-49.324
-50.227
-55.927
-66.407
-81.014
-99.068
-119.477
-139.87
-157.393
-169.127
-173.475
-171.473
-164.809
-154.192
-137.708
-110.398
-65.945
0.133
87.797
193.252
306.871
415.871
508.047
569.375
589.156
560.776
479.688
348.801
176.869
-22.193
-227.73
-417.604
-572.156
-677.704
-730.481
-736.175
-706.18
-653.453
-589.867
-524.125
-461.984
-407.525
-361.354
-321.725
-286.178
-251.695
-218.183
-187.58
-162.055
-143.906
-132.954
-127.496
-125.3
-123.592
-120.624
-115.5
-107.956
-98.532
-87.854
-76.388
-64.807
-53.806
-44.102
-36.514
-31.331
-28.326
-27.105
-27.15
-27.997
-29.291
-30.599
-31.381
-31.295
-30.193
-28.042
-24.94
-20.96
-16.127
-10.514
-4.244
2.536
9.659
16.955
24.284
31.533
38.605
45.407
51.845
57.844
63.365
68.397
72.951
77.03
80.636
83.777
86.48
88.789
90.76
92.451
93.922
95.216
96.366
97.398
98.328
99.159
99.889
100.502
100.976
101.296
101.447
101.415
101.189
100.752
100.088
99.181
98.008
96.551
94.791
92.708
90.3
87.566
84.508
81.136
77.441
73.416
69.065
64.386
59.384
54.079
48.442
42.44
36.144
29.603
22.881
16.069
9.104
1.888
-5.514
-13.052
-20.836
-28.906
-37.402
-46.513
-55.99
-65.552
-75.166
-84.736
-94.069
-103.076
-111.448
-118.837
-125.483
-131.639
-137.326
-142.666
-147.716
-152.449
-157.093
-161.889
-166.616
-171.071
-175.174
-178.766
-181.843
-184.445
-186.442
-187.718
-188.358
-188.432
-187.991
-187.126
-185.82
-184.051
-181.867
-179.302
-176.372
-173.098
-169.496
-165.572
-161.37
-156.932
-152.29
-147.482
-142.535
-137.474
-132.331
-127.133
-121.909
-116.688
-111.496
-106.357
-101.293
-96.327
-91.479
-86.767
-82.208
-77.814
-73.596
-69.563
-65.724
-62.086
-58.653
-55.427
-52.406
-49.589
-46.971
-44.549
-42.314
-40.258
-38.37
-36.64
-35.056
-33.604
-32.27
-31.04
-29.897
-28.826
-27.812
-26.839
-25.89
-24.95
-24.004
-23.039
-22.04
-20.996
-19.894
-18.724
-17.479
-16.151
-14.734
-13.223
-11.616
-9.915
-8.117
-6.224
-4.239
-2.161
-0.004
2.215
4.492
6.822
9.177
11.536
13.877
16.169
18.412
20.618
22.753
24.775
26.739
28.713
30.626
32.465
34.234
35.742
37.481
39.924
42.363
44.564
45.236
42.843
39.074
35.051
32.464
33.63
36.53
39.476
41.308
40.086
37.23
34.164
31.22
29.291
27.881
26.365
24.88
23.342
21.813
20.434
19.078
17.628
16.035
14.206
12.081
9.627
6.776
3.49
-0.268
-4.533
-9.281
-14.518
-20.3
-26.638
-33.496
-40.74
-48.021
-54.951
-61.211
-66.388
-70.052
-71.881
-71.669
-69.576
-66.168
-62.241
-58.706
-56.438
-56.388
-58.839
-62.955
-67.525
-70.816
-72.111
-72.499
-72.442
-70.957
-64.008
-44.737
-7.187
51.582
129.474
220.69
317.337
411.08
494.612
558.913
596.061
598.527
559.366
478.052
356.529
203.035
33.948
-132.713
-275.282
-377.433
-435.12
-452.702
-443.765
-421.412
-390.4
-351.822
-303.819
-247.62
-192.045
-144.961
-110.989
-89.797
-74.383
-59.824
-44.85
-30.586
-20.953
-17.506
-19.269
-24.296
-29.773
-33.954
-36.023
-35.64
-33.051
-28.498
-22.186
-14.606
-6.259
2.302
10.338
17.515
23.844
29.368
34.267
38.726
42.839
46.799
50.896
55.25
59.862
64.691
69.61
74.54
79.468
84.331
89.054
93.576
97.838
101.821
105.55
109.039
112.298
115.338
118.162
120.789
123.255
125.58
127.784
129.879
131.872
133.773
135.604
137.382
139.126
140.85
142.563
144.274
145.993
147.727
149.481
151.255
153.045
154.846
156.656
158.472
160.289
162.1
163.896
165.668
167.405
169.094
170.72
172.268
173.72
175.058
176.265
177.324
178.217
178.927
179.438
179.732
179.795
179.613
179.17
178.455
177.456
176.163
174.567
172.662
170.442
167.906
165.053
161.884
158.403
154.618
150.537
146.171
141.534
136.641
131.51
126.161
120.614
114.893
109.022
103.027
96.934
90.773
84.572
78.36
72.168
66.025
59.962
54.008
48.192
42.543
37.089
31.857
26.872
22.159
17.741
13.641
9.876
6.466
3.424
0.762
-1.509
-3.381
-4.848
-5.907
-6.559
-6.806
-6.654
-6.111
-5.186
-3.892
-2.246
-0.268
2.022
4.602
7.449
10.538
13.841
17.325
20.954
24.693
28.508
32.368
36.239
40.087
43.879
47.585
51.178
54.638
57.944
61.076
64.008
66.715
69.181
71.404
73.392
75.157
76.695
77.98
78.984
79.685
80.073
80.164
79.932
79.306
78.251
76.789
75.04
73.148
71.136
68.884
66.243
63.176
59.674
55.641
50.735
44.494
36.682
27.408
17.083
6.029
-5.558
-17.354
-28.638
-38.351
-45.521
-49.647
-50.823
-49.187
-44.692
-37.421
-27.952
-17.519
-7.636
0.539
6.422
9.535
9.148
4.486
-4.683
-17.75
-33.542
-50.959
-69.124
-87.053
-103.316
-116.125
-124.175
-126.913
-124.275
-116.27
-102.984
-84.943
-63.386
-40.15
-16.828
5.438
25.666
42.774
55.71
63.941
67.666
67.706
64.96
60.173
54.178
48.112
43.174
40.232
39.701
41.524
45.401
51.005
57.865
65.302
72.71
79.691
86.029
91.735
96.96
101.908
106.831
111.993
117.445
122.939
128.148
132.834
136.829
140.069
142.636
144.539
146.035
147.972
151.221
156.32
163.055
170.375
177.345
183.819
191.176
201.087
212.967
223.926
228.253
219.693
196.772
163.396
127.215
96.597
75.498
61.454
50.305
41.334
38.284
50.466
87.26
150.597
237.065
338.433
443.405
543.865
631.418
696.469
730.314
723.426
671.382
576.762
449.975
308.468
168.652
44.392
-59.185
-145.525
-217.551
-279.247
-330.036
-362.973
-375.355
-366.005
-336.22
-294.99
-248.65
-201.38
-158.122
-117.577
-78.992
-43.76
-11.254
16.777
39.058
56.521
69.624
79.424
87.128
93.368
98.842
104.143
109.395
114.356
118.585
121.658
123.215
122.91
120.339
115.057
106.868
95.84
82.343
66.996
50.304
32.703
14.623
-3.567
-21.274
-37.78
-52.759
-66.157
-77.804
-87.362
-94.213
-97.698
-97.882
-95.282
-90.157
-82.596
-72.66
-60.743
-47.879
-35.163
-22.98
-11.316
-0.238
10.066
19.079
26.606
33.158
39.216
44.927
50.337
55.389
60.126
65.044
70.402
76.016
81.93
88.163
94.566
101.155
107.793
113.978
119.437
124.008
127.2
128.783
128.834
127.397
124.835
121.771
118.633
116.044
114.925
115.881
119.285
125.345
133.87
144.527
157.002
170.529
184.034
196.535
206.995
214.664
219.105
219.797
216.345
208.837
197.67
183.495
167.252
149.561
130.832
111.706
92.681
74.031
55.888
38.011
19.921
1.436
-17.449
-36.79
-56.456
-76.274
-96.068
-115.409
-133.79
-150.844
-166.281
-179.936
-191.798
-201.879
-210.173
-216.723
-221.589
-224.856
-226.643
-227.046
-226.171
-224.14
-221.121
-217.36
-213.097
-208.558
-203.956
-199.436
-195.104
-191.05
-187.34
-184.029
-181.165
-178.767
-176.835
-175.386
-174.409
-173.889
-173.778
-173.969
-174.372
-174.913
-175.519
-176.153
-176.793
-177.413
-178.01
-178.597
-179.183
-179.782
-180.414
-181.082
-181.796
-182.566
-183.408
-184.351
-185.416
-186.609
-187.929
-189.363
-190.889
-192.486
-194.125
-195.769
-197.387
-198.944
-200.397
-201.702
-202.82
-203.717
-204.377
-204.805
-204.986
-204.895
-204.503
-203.771
-202.683
-201.264
-199.509
-197.358
-194.794
-191.83
-188.575
-185.295
-182.135
-179.037
-175.896
-172.585
-168.928
-164.832
-160.028
-153.85
-145.885
-136.145
-124.882
-112.686
-100.232
-88.006
-76.594
-67.03
-60.263
-56.14
-54.218
-54.412
-55.865
-59.396
-66.087
-73.241
-79.01
-81.038
-76.444
-68.056
-58.757
-50.372
-45.457
-42.923
-41.455
-41.062
-41.234
-42.293
-44.372
-47.019
-50.078
-53.415
-57.02
-61
-65.308
-70.002
-75.261
-81.173
-87.825
-95.207
-103.211
-111.762
-120.761
-130.116
-139.808
-149.867
-160.405
-171.503
-182.974
-194.505
-205.831
-216.575
-226.378
-234.796
-240.922
-243.873
-243.292
-239.067
-231.38
-220.747
-207.456
-192.029
-175.901
-160.618
-147.439
-137.51
-131.298
-128.845
-130.609
-135.994
-142.533
-147.582
-147.992
-142.135
-131.873
-118.763
-103.553
-84.693
-55.906
-10.321
57.643
149.932
260.624
377.527
484.167
563.252
602.696
596.22
542.92
445.772
308.579
138.099
-53.879
-249.296
-425.681
-563.294
-650.772
-689.846
-692.144
-670.669
-636.055
-592.651
-541.565
-487.165
-435.326
-391.773
-359.526
-335.164
-312.9
-289.403
-264.044
-239.923
-221.157
-208.662
-201.618
-198.064
-195.24
-191.887
-187.488
-181.448
-173.962
-165.42
-155.962
-146.016
-136.071
-126.412
-117.508
-109.839
-103.378
-97.875
-93.083
-88.671
-84.417
-80.174
-75.634
-70.427
-64.33
-57.252
-49.213
-40.306
-30.578
-20.077
-8.918
2.711
14.569
26.456
38.261
49.93
61.438
72.749
83.807
94.564
104.99
115.077
124.816
134.188
143.168
151.746
159.943
167.805
175.409
182.809
190.035
197.105
204.024
210.795
217.422
223.895
230.193
236.295
242.189
247.865
253.322
258.551
263.538
268.262
272.699
276.828
280.633
284.095
287.198
289.926
292.268
294.214
295.764
296.911
297.65
297.974
297.878
297.357
296.409
295.03
293.218
290.974
288.302
285.207
281.698
277.784
273.476
268.788
263.736
258.336
252.608
246.571
240.245
233.654
226.822
219.773
212.535
205.133
197.595
189.949
182.225
174.451
166.655
158.866
151.11
143.415
135.807
128.311
120.951
113.752
106.736
99.922
93.332
86.983
80.89
75.068
69.527
64.277
59.325
54.677
50.335
46.3
42.573
39.149
36.024
33.192
30.644
28.371
26.362
24.603
23.082
21.784
20.694
19.797
19.075
18.514
18.096
17.805
17.624
17.536
17.525
17.575
17.671
17.797
17.94
18.088
18.228
18.351
18.445
18.505
18.523
18.494
18.412
18.277
18.085
17.839
17.54
17.191
16.795
16.358
15.884
15.379
14.851
14.303
13.742
13.173
12.599
12.023
11.449
10.879
10.318
9.765
9.223
8.693
8.177
7.676
7.19
6.714
6.244
5.773
5.294
4.799
4.277
3.717
3.11
2.441
1.698
0.871
-0.054
-1.089
-2.254
-3.576
-5.074
-6.753
-8.619
-10.667
-12.886
-15.267
-17.787
-20.409
-23.102
-25.835
-28.588
-31.357
-34.135
-36.905
-39.644
-42.309
-44.873
-47.34
-49.723
-52.047
-54.351
-56.666
-59.066
-61.672
-64.593
-67.928
-71.75
-76.083
-80.956
-86.406
-92.469
-99.187
-106.592
-114.652
-123.283
-132.374
-141.802
-151.492
-161.295
-170.906
-179.932
-187.884
-194.399
-199.266
-202.068
-202.285
-199.559
-193.592
-185.037
-174.979
-163.558
-151.393
-138.192
-123.703
-110.194
-98.138
-88.111
-80.533
-72.548
-64.005
-55.246
-44.619
-30.688
-8.585
29.486
89.469
173.64
280.617
401.529
521.61
625.617
695.954
718.067
685.049
594.089
449.63
264.548
56.393
-151.767
-333.735
-469.216
-547.944
-571.105
-552.725
-511.773
-463.871
-419.924
-383.462
-351.321
-319.56
-284.359
-242.752
-196.359
-149.115
-105.46
-70.277
-45.461
-30.344
-23.217
-21.59
-23.747
-28.249
-33.708
-39.033
-43.053
-45.215
-45.625
-44.447
-42.07
-39.177
-36.316
-34.125
-33.247
-33.696
-35.272
-37.79
-40.9
-44.294
-47.683
-50.575
-52.517
-53.324
-52.93
-51.381
-48.795
-45.209
-40.71
-35.486
-29.756
-23.764
-17.669
-11.523
-5.365
0.766
6.818
12.702
18.375
23.842
29.098
34.133
38.937
43.478
47.766
51.853
55.795
59.657
63.48
67.274
71.049
74.812
78.562
82.297
86.002
89.641
93.191
96.636
99.964
103.164
106.22
109.103
111.786
114.247
116.462
118.412
120.076
121.437
122.48
123.196
123.577
123.623
123.327
122.686
121.694
120.35
118.651
116.597
114.188
111.426
108.316
104.865
101.081
96.978
92.569
87.868
82.892
77.662
72.196
66.516
60.644
54.605
48.424
42.125
35.738
29.287
22.802
16.311
9.842
3.424
-2.916
-9.151
-15.256
-21.205
-26.974
-32.541
-37.882
-42.978
-47.811
-52.362
-56.615
-60.556
-64.172
-67.453
-70.392
-72.983
-75.222
-77.106
-78.638
-79.818
-80.653
-81.149
-81.313
-81.155
-80.688
-79.926
-78.882
-77.574
-76.018
-74.235
-72.242
-70.062
-67.714
-65.22
-62.602
-59.881
-57.08
-54.218
-51.319
-48.401
-45.487
-42.595
-39.744
-36.954
-34.242
-31.623
-29.114
-26.727
-24.477
-22.375
-20.43
-18.651
-17.047
-15.621
-14.38
-13.326
-12.462
-11.787
-11.299
-10.998
-10.878
-10.935
-11.163
-11.552
-12.095
-12.781
-13.599
-14.539
-15.589
-16.735
-17.966
-19.268
-20.629
-22.033
-23.467
-24.917
-26.369
-27.808
-29.222
-30.596
-31.917
-33.174
-34.354
-35.447
-36.443
-37.334
-38.111
-38.765
-39.291
-39.683
-39.937
-40.051
-40.021
-39.847
-39.53
-39.076
-38.489
-37.779
-36.95
-36.012
-34.976
-33.851
-32.65
-31.38
-30.049
-28.667
-27.244
-25.793
-24.33
-22.868
-21.418
-19.996
-18.617
-17.294
-16.04
-14.859
-13.754
-12.729
-11.792
-10.955
-10.237
-9.651
-9.203
-8.9
-8.744
-8.73
-8.849
-9.075
-9.367
-9.695
-10.036
-10.368
-10.684
-10.969
-11.204
-11.371
-11.442
-11.399
-11.226
-10.917
-10.48
-9.951
-9.385
-8.856
-8.462
-8.29
-8.425
-8.957
-9.954
-11.474
-13.545
-16.195
-19.479
-23.427
-28.023
-33.124
-38.457
-43.697
-48.531
-52.593
-55.419
-56.615
-55.922
-53.433
-49.621
-45.037
-40.342
-36.352
-33.969
-34.159
-36.94
-40.78
-43.631
-43.115
-38.506
-31.941
-25.022
-18.087
-8.05
13.573
55.461
123.808
219.41
334.208
454.974
566.569
654.665
709.3
723.851
693.685
616.236
492.043
327.394
136.326
-59.017
-233.936
-368.327
-451.12
-485.276
-483.011
-457.084
-418.343
-371.15
-316.18
-257.379
-200.118
-149.911
-110.567
-80.307
-54.677
-31.154
-9.133
9.374
21.239
26.084
25.2
20.858
16.056
12.473
10.852
11.43
13.689
17.043
21.066
25.102
28.488
30.633
30.902
29.119
25.581
20.677
14.829
8.449
1.854
-4.577
-10.334
-15.106
-18.777
-21.301
-22.752
-23.186
-22.594
-21.038
-18.664
-15.624
-12.108
-8.29
-4.249
-0.053
4.226
8.526
12.763
16.869
20.834
24.654
28.319
31.823
35.143
38.272
41.245
44.108
46.912
49.718
52.554
55.434
58.375
61.382
64.453
67.583
70.745
73.905
77.042
80.136
83.171
86.132
88.994
91.728
94.309
96.71
98.906
100.875
102.595
104.047
105.218
106.095
106.672
106.943
106.902
106.543
105.859
104.846
103.497
101.811
99.785
97.417
94.709
91.663
88.284
84.58
80.559
76.232
71.61
66.705
61.531
56.104
50.439
44.553
38.465
32.194
25.759
19.18
12.479
5.677
-1.204
-8.143
-15.118
-22.108
-29.092
-36.049
-42.958
-49.799
-56.552
-63.198
-69.716
-76.088
-82.295
-88.319
-94.142
-99.748
-105.121
-110.247
-115.111
-119.7
-124.002
-128.005
-131.699
-135.074
-138.123
-140.836
-143.207
-145.23
-146.901
-148.216
-149.172
-149.767
-150
-149.873
-149.385
-148.541
-147.342
-145.794
-143.901
-141.669
-139.107
-136.221
-133.023
-129.523
-125.732
-121.663
-117.331
-112.752
-107.941
-102.915
-97.693
-92.293
-86.735
-81.039
-75.226
-69.318
-63.336
-57.303
-51.243
-45.179
-39.134
-33.131
-27.193
-21.342
-15.6
-9.987
-4.525
0.77
5.877
10.779
15.459
19.9
24.088
28.011
31.657
35.015
38.077
40.836
43.288
45.431
47.264
48.784
49.994
50.895
51.491
51.789
51.794
51.515
50.962
50.147
49.083
47.786
46.271
44.554
42.651
40.577
38.35
35.984
33.492
30.889
28.19
25.409
22.563
19.67
16.748
13.813
10.886
7.986
5.13
2.333
-0.396
-3.043
-5.595
-8.039
-10.36
-12.543
-14.579
-16.452
-18.141
-19.636
-20.93
-22.031
-22.96
-23.73
-24.344
-24.808
-25.123
-25.292
-25.314
-25.17
-24.821
-24.232
-23.375
-22.252
-20.884
-19.275
-17.414
-15.272
-12.813
-10.039
-6.976
-3.634
-0.012
3.889
8.048
12.351
16.623
20.705
24.464
27.845
30.812
33.243
35.028
36.116
36.583
36.706
36.804
37.064
37.674
38.904
40.973
44.042
47.922
51.937
55.318
57.225
56.809
53.361
46.184
35.65
23.819
13.13
6.422
5.075
7.135
11.736
19.573
33.202
60.745
108.881
179.553
271.935
376.421
479.445
569.048
631.664
658.471
645.204
588.224
489.3
353.754
191.728
21.387
-136.976
-264.031
-347.995
-391.034
-402.885
-397.022
-384.569
-366.295
-340.573
-306.944
-265.572
-222.636
-182.956
-146.476
-113.522
-82.648
-53.682
-29.549
-11.503
0.221
6.29
8.66
8.813
7.997
7.441
7.999
10.056
13.504
17.972
23.149
28.668
34.007
38.562
41.633
42.932
42.689
41.259
39.01
36.241
33.185
30.151
27.598
25.869
25.094
25.309
26.449
28.452
31.329
35.048
39.493
44.518
49.946
55.608
61.424
67.347
73.323
79.308
85.236
91.035
96.682
102.177
107.506
112.661
117.619
122.358
126.893
131.267
135.526
139.721
143.88
148.006
152.105
156.175
160.212
164.206
168.131
171.953
175.647
179.193
182.577
185.785
188.796
191.584
194.123
196.391
198.365
200.029
201.366
202.364
203.012
203.306
203.246
202.835
202.074
200.967
199.514
197.721
195.592
193.134
190.355
187.263
183.87
180.188
176.234
172.024
167.575
162.907
158.038
152.989
147.78
142.43
136.96
131.389
125.737
120.023
114.264
108.478
102.681
96.889
91.116
85.375
79.677
74.033
68.45
62.936
57.496
52.136
46.859
41.667
36.561
31.543
26.611
21.764
16.999
12.314
7.703
3.161
-1.319
-5.741
-10.113
-14.443
-18.738
-23.003
-27.246
-31.472
-35.687
-39.895
-44.1
-48.305
-52.51
-56.718
-60.927
-65.136
-69.342
-73.541
-77.726
-81.893
-86.032
-90.136
-94.193
-98.195
-102.128
-105.983
-109.748
-113.409
-116.954
-120.37
-123.644
-126.763
-129.714
-132.483
-135.057
-137.424
-139.572
-141.488
-143.162
-144.584
-145.745
-146.638
-147.256
-147.594
-147.647
-147.412
-146.888
-146.074
-144.972
-143.585
-141.917
-139.978
-137.774
-135.318
-132.62
-129.696
-126.559
-123.226
-119.712
-116.036
-112.213
-108.265
-104.208
-100.065
-95.855
-91.601
-87.323
-83.047
-78.793
-74.587
-70.451
-66.409
-62.481
-58.687
-55.045
-51.573
-48.288
-45.205
-42.337
-39.697
-37.297
-35.146
-33.254
-31.624
-30.254
-29.142
-28.278
-27.654
-27.264
-27.099
-27.149
-27.412
-27.886
-28.573
-29.487
-30.631
-31.996
-33.568
-35.319
-37.222
-39.258
-41.405
-43.628
-45.903
-48.208
-50.522
-52.843
-55.143
-57.381
-59.506
-61.434
-63.11
-64.511
-65.618
-66.452
-67.053
-67.453
-67.716
-67.939
-68.168
-68.444
-68.836
-69.329
-69.884
-70.419
-70.762
-70.778
-70.381
-69.416
-67.645
-64.922
-61.268
-57.046
-52.957
-49.63
-47.694
-47.855
-50.783
-57.146
-66.621
-77.298
-86.849
-92.749
-93.878
-92.064
-88.337
-82.342
-72.133
-50.756
-12.116
45.964
123.461
212.33
300.308
376.158
426.881
443.856
423.176
361.942
262.808
131.607
-22.051
-181.557
-328.654
-445.156
-518.336
-547.249
-538.784
-506.084
-463.189
-417.713
-374.703
-336.091
-300.298
-267.626
-236.397
-203.69
-170.292
-137.177
-106.368
-81.387
-62.771
-49.483
-40.51
-33.798
-27.827
-21.959
-15.422
-7.953
0.166
8.658
17.277
25.608
33.148
39.389
43.714
45.871
46.075
44.618
41.848
38.181
34.011
29.812
26.172
23.474
21.876
21.477
22.268
24.244
27.44
31.807
37.216
43.554
50.7
58.546
67.019
75.989
85.277
94.725
104.182
113.536
122.732
131.708
140.406
148.792
156.843
164.558
171.958
179.052
185.841
192.333
198.539
204.483
210.205
215.728
221.056
226.185
231.099
235.779
240.21
244.362
248.197
251.682
254.783
257.473
259.737
261.551
262.893
263.742
264.077
263.883
263.154
261.884
260.07
257.714
254.818
251.394
247.454
243.014
238.087
232.686
226.829
220.534
213.823
206.717
199.239
191.413
183.267
174.831
166.135
157.209
148.085
138.795
129.372
119.847
110.254
100.625
90.99
81.382
71.83
62.363
53.011
43.801
34.757
25.904
17.265
8.861
0.712
-7.164
-14.751
-22.034
-29.001
-35.64
-41.941
-47.898
-53.504
-58.755
-63.648
-68.183
-72.36
-76.183
-79.654
-82.779
-85.565
-88.02
-90.153
-91.974
-93.494
-94.724
-95.676
-96.363
-96.797
-96.992
-96.961
-96.718
-96.276
-95.65
-94.853
-93.898
-92.8
-91.571
-90.224
-88.773
-87.229
-85.605
-83.911
-82.158
-80.357
-78.517
-76.648
-74.759
-72.856
-70.949
-69.044
-67.148
-65.267
-63.406
-61.569
-59.76
-57.984
-56.242
-54.538
-52.874
-51.251
-49.671
-48.135
-46.645
-45.202
-43.804
-42.451
-41.143
-39.879
-38.655
-37.471
-36.324
-35.21
-34.128
-33.074
-32.047
-31.044
-30.061
-29.096
-28.145
-27.205
-26.273
-25.345
-24.417
-23.486
-22.548
-21.601
-20.646
-19.679
-18.701
-17.71
-16.706
-15.691
-14.663
-13.624
-12.573
-11.511
-10.44
-9.363
-8.283
-7.206
-6.138
-5.087
-4.061
-3.069
-2.12
-1.221
-0.378
0.402
1.113
1.753
2.316
2.798
3.191
3.486
3.674
3.75
3.706
3.54
3.251
2.836
2.297
1.644
0.884
0.019
-0.956
-2.06
-3.302
-4.681
-6.195
-7.838
-9.603
-11.484
-13.456
-15.472
-17.488
-19.462
-21.374
-23.242
-25.061
-26.815
-28.48
-30.004
-31.368
-32.601
-33.698
-34.646
-35.44
-36.055
-36.546
-37.063
-37.728
-38.667
-39.957
-41.579
-43.581
-46.069
-49.068
-52.575
-56.432
-60.269
-63.805
-66.897
-69.349
-70.961
-71.556
-70.957
-69.394
-67.524
-66.106
-65.82
-67.116
-70.405
-76.006
-83.921
-93.699
-103.533
-110.362
-111.471
-104.508
-89.62
-69.871
-47.178
-23.071
5.121
44.757
100.121
173.584
260.36
347.092
420.931
468.327
479.701
452.033
383.375
276.053
135.584
-28.601
-199.468
-357.628
-483.27
-562.33
-593.529
-583.611
-546.526
-498.128
-447.616
-401.698
-363.3
-330.557
-302.96
-278.089
-252.546
-226.916
-202.237
-180.427
-164.719
-155.377
-151.113
-150.322
-150.332
-149.331
-146.43
-141.153
-133.751
-124.712
-114.534
-103.777
-93.05
-83.03
-74.389
-67.438
-62.085
-58.052
-54.935
-52.409
-50.244
-48.154
-45.828
-43.052
-39.715
-35.778
-31.252
-26.135
-20.404
-14.091
-7.277
-0.084
7.331
14.832
22.31
29.684
36.904
43.932
50.744
57.325
63.674
69.783
75.629
81.184
86.419
91.321
95.898
100.179
104.217
108.06
111.748
115.316
118.777
122.144
125.416
128.583
131.624
134.523
137.267
139.851
142.274
144.53
146.609
148.497
150.179
151.636
152.852
153.808
154.488
154.88
154.972
154.758
154.237
153.405
152.262
150.804
149.028
146.935
144.522
141.79
138.74
135.373
131.695
127.712
123.434
118.872
114.037
108.943
103.605
98.039
92.264
86.297
80.157
73.865
67.441
60.908
54.287
47.602
40.874
34.128
27.385
20.668
14.001
7.403
0.895
-5.503
-11.773
-17.897
-23.86
-29.645
-35.239
-40.628
-45.8
-50.744
-55.451
-59.914
-64.125
-68.082
-71.78
-75.218
-78.394
-81.31
-83.968
-86.369
-88.518
-90.418
-92.076
-93.496
-94.687
-95.655
-96.408
-96.954
-97.303
-97.461
-97.439
-97.244
-96.886
-96.371
-95.709
-94.907
-93.973
-92.915
-91.74
-90.456
-89.069
-87.585
-86.012
-84.355
-82.621
-80.815
-78.943
-77.011
-75.025
-72.991
-70.917
-68.807
-66.67
-64.512
-62.342
-60.165
-57.989
-55.822
-53.671
-51.545
-49.451
-47.398
-45.394
-43.449
-41.572
-39.772
-38.057
-36.438
-34.923
-33.52
-32.239
-31.086
-30.071
-29.2
-28.481
-27.92
-27.521
-27.29
-27.23
-27.342
-27.628
-28.085
-28.712
-29.506
-30.461
-31.569
-32.822
-34.212
-35.73
-37.366
-39.109
-40.945
-42.861
-44.845
-46.882
-48.955
-51.044
-53.127
-55.184
-57.196
-59.145
-61.013
-62.779
-64.427
-65.94
-67.303
-68.51
-69.547
-70.394
-71.034
-71.448
-71.633
-71.604
-71.369
-70.931
-70.303
-69.494
-68.519
-67.41
-66.176
-64.806
-63.293
-61.625
-59.81
-57.886
-55.883
-53.835
-51.76
-49.64
-47.471
-45.276
-43.057
-40.811
-38.537
-36.195
-33.797
-31.426
-29.146
-27.023
-25.089
-23.317
-21.679
-20.172
-18.8
-17.605
-16.622
-15.84
-15.274
-14.961
-14.938
-15.294
-16.059
-17.154
-18.519
-20.118
-21.958
-24.143
-26.793
-29.961
-33.681
-37.958
-42.791
-48.242
-54.349
-61.098
-68.453
-76.299
-84.57
-93.345
-102.655
-112.397
-122.31
-131.896
-140.635
-148.191
-154.236
-158.378
-160.336
-159.971
-157.554
-153.851
-149.641
-145.686
-142.723
-141.317
-142.023
-144.582
-147.267
-148.048
-144.717
-136.255
-124.463
-110.33
-93.238
-71.074
-37.451
12.89
80.785
165.094
258.852
352.125
436.528
501.153
536.169
534.032
487.294
394.961
261.952
99.451
-72.411
-232.501
-361.518
-446.017
-486.431
-490.302
-468.512
-434.625
-394.823
-352.514
-312.426
-274.111
-238.456
-206.034
-173.156
-140.236
-109.167
-81.681
-61.532
-49.563
-44.257
-44.021
-46.348
-49.206
-51.41
-51.823
-49.953
-45.928
-40.089
-32.943
-25.022
-16.897
-9.192
-2.511
2.819
6.857
9.862
12.137
13.97
15.593
17.254
19.277
21.885
25.174
29.201
33.951
39.365
45.408
51.979
58.902
66.051
73.314
80.577
87.794
94.926
101.932
108.81
115.559
122.161
128.596
134.829
140.814
146.531
151.974
157.148
162.087
166.816
171.358
175.742
179.985
184.09
188.057
191.87
195.504
198.942
202.17
205.178
207.965
210.523
212.845
214.923
216.745
218.301
219.582
220.575
221.272
221.666
221.753
221.535
221.018
220.208
219.11
217.732
216.083
214.17
212.004
209.594
206.949
204.08
201
197.723
194.262
190.634
186.854
182.938
178.901
174.761
170.534
166.235
161.88
157.484
153.062
148.629
144.198
139.782
135.395
131.048
126.752
122.52
118.36
114.281
110.292
106.399
102.607
98.921
95.346
91.883
88.536
85.307
82.198
79.209
76.342
73.597
70.974
68.473
66.093
63.835
61.697
59.679
57.781
56.004
54.348
52.815
51.404
50.119
48.959
47.928
47.026
46.254
45.614
45.107
44.732
44.492
44.388
44.419
44.586
44.889
45.326
45.897
46.6
47.432
48.388
49.464
50.654
51.95
53.345
54.83
56.394
58.025
59.713
61.444
63.204
64.977
66.746
68.493
70.2
71.85
73.424
74.903
76.269
77.508
78.606
79.55
80.326
80.921
81.324
81.523
81.508
81.267
80.79
80.067
79.093
77.865
76.382
74.644
72.655
70.419
67.944
65.24
62.318
59.192
55.871
52.373
48.722
44.947
41.085
37.167
33.213
29.248
25.294
21.368
17.486
13.647
9.833
6.042
2.266
-1.497
-5.242
-8.984
-12.738
-16.51
-20.309
-24.123
-27.919
-31.675
-35.373
-38.973
-42.441
-45.715
-48.706
-51.341
-53.52
-55.15
-56.139
-56.318
-55.577
-53.883
-51.251
-47.894
-44.14
-40.221
-36.402
-33.092
-30.529
-28.783
-27.72
-26.614
-24.503
-21.339
-17.829
-14.271
-11.054
-6.375
3.704
19.679
39.149
55.165
56.644
38.134
0.154
-51.193
-106.365
-161.468
-215.598
-269.317
-321.221
-362.34
-386
-388.765
-372.1
-347.436
-322.967
-303.302
-291.233
-281.585
-270.967
-258.584
-243
-226.821
-211.83
-197.84
-185.145
-172.577
-159.395
-145.942
-132.337
-119.11
-106.866
-95.76
-86.045
-77.763
-70.4
-63.84
-58.337
-54.068
-51.414
-50.822
-52.49
-56.872
-65.097
-77.081
-91.508
-108.162
-126.734
-147.874
-174.348
-204.742
-234.131
-258.024
-270.494
-270.716
-264.062
-254.826
-247.383
-243.486
-240.701
-237.582
-233.783
-229.88
-227.165
-226.002
-225.186
-221.733
-212.779
-196.118
-171.003
-139.517
-103.873
-65.381
-22.905
28.624
94.28
176.871
274.524
378.486
476.348
554.165
598.006
596.664
542.455
433.787
277.714
91.104
-99.896
-267.61
-389.356
-453.207
-463.748
-433.942
-378.377
-310.141
-233.244
-149.437
-63.843
17.99
87.496
139.108
174.722
199.085
218.375
236.219
251.949
263.421
268.715
268.321
264.5
259.971
257.415
257.546
259.594
262.586
265.081
266.376
267.211
267.277
265.116
259.18
247.053
228.969
208.737
190.952
180.248
178.409
182.851
188.385
190.245
185.42
173.927
159.694
146.077
135.351
128.778
124.34
120.527
116.936
112.992
109.547
107.275
105.9
105.325
105.279
105.442
105.895
106.805
108.212
110.043
112.302
115.139
118.91
124.077
130.771
138.653
147.164
155.899
164.525
172.639
179.713
185.128
188.617
190.556
191.623
192.235
192.701
193.367
194.48
196.345
199.048
202.09
205.014
207.879
210.71
213.463
216.277
219.159
222.248
226.11
230.905
236.165
241.57
246.865
251.721
256.015
259.493
261.614
262.265
261.776
260.347
258.153
255.327
251.814
247.686
243.184
238.348
233.058
227.25
220.862
213.901
206.479
198.64
190.353
181.632
172.516
163.055
153.334
143.402
133.245
122.848
112.201
101.269
90.018
78.368
66.184
53.353
39.797
25.474
10.386
-5.459
-22.069
-39.44
-57.565
-76.408
-95.877
-115.858
-136.196
-156.649
-176.946
-196.758
-215.693
-233.422
-249.643
-264.028
-276.409
-286.777
-294.966
-300.722
-303.881
-304.088
-301.573
-297.416
-291.484
-282.889
-270.261
-250.824
-224.975
-196.217
-167.931
-144.753
-127.481
-112.299
-96.372
-76.725
-53.01
-28.71
-6.104
13.309
28.872
41.677
52.271
60.598
66.783
70.773
72.589
72.447
70.488
66.797
61.579
55.144
47.815
39.922
31.78
23.605
15.609
8.011
0.943
-5.515
-11.302
-16.385
-20.653
-23.929
-26.114
-27.165
-27.102
-26.051
-24.142
-21.516
-18.385
-14.921
-11.262
-7.544
-3.843
-0.186
3.353
6.66
9.587
11.91
13.36
13.708
12.891
10.855
7.532
3.081
-2.957
-11.016
-20.326
-30.628
-40.626
-48.808
-56.935
-66.139
-78.046
-94.833
-114.247
-134.357
-153.764
-170.308
-185.268
-199.979
-214.731
-230.379
-246.317
-261.77
-276.725
-290.86
-303.951
-315.795
-325.876
-333.875
-339.749
-343.489
-345.176
-344.907
-342.711
-338.874
-333.948
-328.21
-321.706
-314.248
-305.343
-294.694
-282.236
-267.48
-249.561
-227.805
-201.745
-171.573
-138.195
-102.405
-64.989
-27.25
9.044
41.939
69.6
91.038
106.114
114.821
117.428
114.642
107.554
97.702
86.62
75.204
63.748
52.365
40.91
29.057
16.477
2.6
-13.117
-30.766
-50.069
-70.524
-91.333
-111.696
-131.159
-149.292
-165.74
-180.422
-193.388
-205.051
-216.34
-228.087
-240.621
-254.119
-268.617
-284.092
-300.72
-318.295
-335.922
-352.698
-368.201
-382.191
-394.551
-405.197
-412.82
-415.084
-410.211
-396.363
-373.314
-344.131
-311.46
-276.834
-238.927
-190.42
-123.123
-31.15
86.69
222.416
362.531
491.074
591.198
650.674
660.857
616.59
519.249
373.833
192.253
-5.472
-197.242
-359.327
-474.211
-537.07
-552.18
-532.899
-495.515
-452.493
-413.129
-382.491
-361.837
-349.658
-342.254
-334.633
-322.441
-305.29
-285.603
-266.995
-253.406
-246.005
-243.714
-245.196
-248.914
-253.929
-259.917
-266.395
-272.604
-277.715
-281.225
-282.84
-282.408
-280.051
-275.955
-270.377
-263.843
-256.946
-249.974
-243.044
-236.165
-229.2
-222.056
-214.653
-206.785
-198.202
-188.779
-178.488
-167.381
-155.58
-143.165
-130.198
-116.768
-102.981
-88.931
-74.685
-60.278
-45.72
-31.028
-16.228
-1.349
13.583
28.55
43.535
58.521
73.486
88.405
103.254
118.014
132.667
147.198
161.586
175.807
189.833
203.64
217.202
230.493
243.489
256.163
268.489
280.445
292.012
303.171
313.902
324.185
333.998
343.318
352.121
360.384
368.081
375.185
381.669
387.508
392.681
397.167
400.943
403.983
406.253
407.73
408.402
408.259
407.299
405.528
402.955
399.599
395.504
390.707
385.249
379.167
372.47
365.169
357.284
348.838
339.863
330.372
320.341
309.744
298.578
286.832
274.504
261.568
247.937
233.559
218.435
202.554
185.937
168.636
150.684
132.158
113.218
94.019
74.711
55.581
36.993
19.154
2.176
-13.745
-28.589
-41.798
-52.119
-59.743
-65.685
-71.678
-80.953
-93.278
-105.483
-114.44
-115.71
-109.262
-99.593
-90.174
-84.763
-84.065
-84.944
-85.495
-84.357
-81.094
-77.017
-72.722
-68.18
-63.466
-58.343
-52.69
-46.613
-40.08
-33.03
-25.495
-17.532
-9.209
-0.653
7.962
16.443
24.538
32.036
38.788
44.647
49.49
53.165
55.483
56.278
55.397
52.705
48.155
41.77
33.613
23.847
12.69
0.359
-12.907
-26.895
-41.478
-56.563
-72.02
-87.624
-102.975
-117.59
-131.036
-143.034
-153.348
-161.571
-167.423
-170.982
-172.755
-173.584
-173.578
-171.686
-166.886
-158.913
-149.809
-143.623
-142.629
-146.526
-149.858
-143.226
-120.37
-78.946
-25.08
28.223
70.82
96.273
106.724
110.339
111.921
113.639
112.8
106.25
96.278
86.861
83.513
88.387
98.06
108.9
117.006
121.135
123.242
124.131
124.53
124.651
123.66
121.862
119.992
118.556
118.514
120.749
125.493
132.751
142.129
152.663
163.672
174.898
186.07
196.848
206.934
215.838
223.2
229.251
234.052
237.299
238.567
237.282
233.193
226.682
218.323
208.349
196.914
184.202
170.575
156.737
143.141
129.761
116.275
102.389
88.035
73.307
58.28
42.912
27.163
11.076
-5.091
-20.985
-36.271
-50.523
-63.393
-74.662
-84.003
-91.055
-95.581
-97.461
-96.928
-94.639
-91.498
-88.542
-86.815
-87.459
-90.842
-96.238
-102.738
-108.653
-113.099
-116.899
-119.424
-119.29
-113.385
-95.349
-60.601
-6.011
70.095
164.908
273.955
390.024
501.082
592.679
649.802
658.425
609.625
503.062
345.135
150.674
-57.169
-253.991
-416.783
-528.314
-584
-589.305
-554.638
-493.864
-418.485
-336.109
-254.826
-182.085
-123.574
-82.561
-57.772
-42.405
-28.26
-10.566
12.616
37.52
57.233
68.488
69.801
63.181
53.902
44.88
37.883
33.677
31.016
29.295
28.455
28.19
28.464
29.127
29.661
29.555
28.634
26.902
24.494
21.728
18.929
16.353
14.308
13.092
12.828
13.548
15.207
17.628
20.617
23.978
27.526
31.15
34.806
38.475
42.15
45.821
49.461
53.064
56.634
60.155
63.616
67.002
70.314
73.583
76.873
80.255
83.78
87.47
91.33
95.358
99.548
103.889
108.359
112.923
117.545
122.202
126.874
131.543
136.184
140.764
145.24
149.573
153.726
157.665
161.355
164.764
167.861
170.618
173.017
175.04
176.672
177.894
178.69
179.043
178.941
178.375
177.336
175.819
173.818
171.335
168.374
164.944
161.054
156.719
151.953
146.776
141.208
135.273
128.995
122.403
115.524
108.39
101.032
93.486
85.785
77.965
70.061
62.111
54.15
46.213
38.333
30.543
22.876
15.36
8.025
0.897
-5.999
-12.639
-19.004
-25.074
-30.833
-36.268
-41.369
-46.128
-50.54
-54.603
-58.317
-61.685
-64.712
-67.405
-69.774
-71.831
-73.588
-75.062
-76.269
-77.228
-77.959
-78.484
-78.822
-78.998
-79.033
-78.949
-78.77
-78.517
-78.212
-77.875
-77.527
-77.186
-76.872
-76.602
-76.39
-76.253
-76.201
-76.248
-76.402
-76.672
-77.064
-77.584
-78.233
-79.013
-79.926
-80.969
-82.14
-83.434
-84.846
-86.369
-87.994
-89.712
-91.512
-93.381
-95.308
-97.278
-99.279
-101.295
-103.313
-105.318
-107.295
-109.229
-111.106
-112.912
-114.632
-116.251
-117.757
-119.136
-120.375
-121.465
-122.392
-123.147
-123.72
-124.105
-124.294
-124.281
-124.061
-123.629
-122.983
-122.12
-121.042
-119.749
-118.244
-116.529
-114.612
-112.502
-110.209
-107.745
-105.12
-102.348
-99.441
-96.416
-93.286
-90.063
-86.76
-83.392
-79.976
-76.531
-73.075
-69.627
-66.204
-62.828
-59.518
-56.297
-53.176
-50.166
-47.278
-44.526
-41.929
-39.512
-37.292
-35.277
-33.481
-31.91
-30.569
-29.453
-28.541
-27.793
-27.181
-26.682
-26.284
-25.984
-25.766
-25.608
-25.489
-25.386
-25.298
-25.228
-25.166
-25.104
-25.071
-25.128
-25.377
-25.949
-26.936
-28.394
-30.387
-32.985
-36.264
-40.306
-45.153
-50.792
-57.213
-64.469
-72.573
-81.433
-90.802
-100.219
-109.168
-117.228
-123.964
-128.852
-131.539
-131.929
-130.238
-127.2
-123.772
-120.854
-119.422
-120.632
-124.696
-130.468
-136.324
-139.705
-139.198
-135.89
-130.77
-123.815
-112.286
-90.113
-49.588
15.3
105.624
218.311
343.346
465.741
570.641
641.542
665.69
636.345
549.85
409.952
227.14
17.853
-193.944
-382.514
-526.135
-612.704
-644.018
-632.221
-594.244
-544.566
-491.141
-437.758
-385.538
-336.614
-293.935
-258.361
-229.578
-205.188
-183.33
-164.388
-149.534
-140.634
-137.926
-139.979
-144.546
-148.873
-151.216
-150.665
-147.031
-140.916
-132.921
-123.539
-113.424
-103.128
-93.247
-84.476
-77.082
-70.972
-65.901
-61.517
-57.521
-53.715
-49.874
-45.707
-41.034
-35.765
-29.881
-23.481
-16.685
-9.616
-2.39
4.879
12.1
19.184
26.033
32.592
38.839
44.774
50.405
55.725
60.707
65.317
69.535
73.358
76.8
79.895
82.663
85.122
87.296
89.215
90.914
92.42
93.741
94.869
95.8
96.538
97.091
97.469
97.68
97.727
97.613
97.342
96.919
96.348
95.631
94.768
93.757
92.6
91.299
89.861
88.293
86.599
84.782
82.847
80.799
78.643
76.382
74.019
71.557
69
66.351
63.615
60.798
57.905
54.939
51.908
48.816
45.67
42.476
39.24
35.969
32.67
29.352
26.02
22.684
19.351
16.032
12.734
9.467
6.241
3.064
-0.052
-3.099
-6.068
-8.949
-11.733
-14.413
-16.98
-19.426
-21.744
-23.926
-25.967
-27.862
-29.605
-31.192
-32.62
-33.887
-34.992
-35.935
-36.716
-37.335
-37.797
-38.103
-38.26
-38.272
-38.147
-37.892
-37.515
-37.028
-36.439
-35.762
-35.007
-34.187
-33.315
-32.403
-31.466
-30.516
-29.569
-28.636
-27.733
-26.873
-26.069
-25.333
-24.678
-24.115
-23.652
-23.3
-23.066
-22.958
-22.979
-23.135
-23.43
-23.864
-24.439
-25.154
-26.004
-26.986
-28.094
-29.319
-30.652
-32.082
-33.594
-35.177
-36.815
-38.493
-40.196
-41.907
-43.609
-45.283
-46.912
-48.477
-49.961
-51.344
-52.609
-53.737
-54.713
-55.521
-56.15
-56.588
-56.826
-56.858
-56.676
-56.279
-55.661
-54.821
-53.757
-52.466
-50.949
-49.208
-47.247
-45.072
-42.698
-40.137
-37.404
-34.515
-31.485
-28.33
-25.068
-21.713
-18.273
-14.76
-11.191
-7.589
-3.994
-0.438
3.056
6.467
9.78
12.984
16.066
19.025
21.884
24.661
27.376
30.032
32.601
35.057
37.389
39.604
41.732
43.785
45.74
47.559
49.23
50.731
52.043
53.124
53.847
54.086
53.74
52.725
51.039
48.701
45.68
41.894
37.293
31.918
25.992
19.87
13.825
8.071
2.845
-1.517
-4.591
-6.142
-6.429
-6.121
-5.965
-6.704
-8.964
-13.268
-20.333
-30.089
-40.826
-50.394
-56.419
-57.674
-55.997
-52.848
-47.12
-35.798
-12.489
28.96
88.758
163.93
248.456
332.39
408.258
468.268
502.527
504.114
466.219
384.626
261.806
104.821
-72.464
-249.937
-406.764
-524.893
-594.354
-616.866
-601.067
-559.595
-505.352
-446.298
-389.588
-340.386
-299.312
-266.458
-238.282
-209.568
-179.481
-148.739
-119.876
-97.047
-81.077
-70.739
-64.125
-58.032
-50.456
-40.761
-28.794
-15.172
-0.68
14.136
28.49
41.112
50.927
57.261
59.99
59.883
58.092
55.46
52.876
51.616
52.626
56.561
63.758
73.536
84.802
96.901
109.17
120.678
130.799
138.975
144.713
148.479
151.113
153.047
154.676
156.434
158.538
161.318
165.169
169.825
174.713
179.518
183.991
188.013
191.63
194.743
197.163
198.982
200.465
201.791
203.109
204.454
205.751
207.004
208.27
209.56
210.844
212.092
213.263
214.349
215.377
216.353
217.271
218.112
218.845
219.444
219.892
220.172
220.265
220.152
219.812
219.226
218.379
217.256
215.839
214.113
212.059
209.66
206.9
203.767
200.252
196.35
192.058
187.374
182.3
176.84
171.001
164.793
158.231
151.329
144.104
136.575
128.767
120.704
112.413
103.924
95.268
86.477
77.584
68.627
59.642
50.666
41.737
32.892
24.168
15.603
7.233
-0.907
-8.782
-16.36
-23.611
-30.505
-37.016
-43.119
-48.793
-54.019
-58.781
-63.066
-66.864
-70.169
-72.975
-75.284
-77.096
-78.417
-79.254
-79.617
-79.519
-78.974
-77.999
-76.615
-74.843
-72.705
-70.226
-67.434
-64.356
-61.021
-57.458
-53.697
-49.766
-45.696
-41.515
-37.252
-32.934
-28.586
-24.236
-19.907
-15.623
-11.407
-7.278
-3.254
0.647
4.41
8.024
11.477
14.762
17.87
20.798
23.539
26.091
28.451
30.619
32.596
34.384
35.987
37.408
38.655
39.736
40.657
41.428
42.056
42.548
42.912
43.154
43.278
43.288
43.19
42.987
42.684
42.288
41.805
41.241
40.604
39.901
39.135
38.31
37.424
36.478
35.47
34.402
33.275
32.09
30.849
29.556
28.224
26.857
25.46
24.028
22.542
20.992
19.378
17.701
15.966
14.178
12.341
10.481
8.643
6.871
5.205
3.662
2.225
0.891
-0.326
-1.412
-2.323
-3.053
-3.639
-4.089
-4.398
-4.566
-4.583
-4.518
-4.533
-4.765
-5.343
-6.347
-7.759
-9.63
-12.062
-15.068
-18.622
-22.56
-26.517
-30.242
-33.647
-36.567
-38.813
-40.238
-40.645
-40.179
-39.415
-38.914
-39.112
-40.316
-42.745
-46.519
-51.661
-57.85
-63.571
-66.431
-64.404
-55.584
-40.238
-21.266
0.22
23.369
49.602
84.845
130.893
187.564
253.095
318.944
378.339
424.401
446.796
438.244
391.784
304.191
180.005
29.736
-129.457
-279.165
-401.166
-481.845
-518.63
-515.101
-482.886
-438.538
-393.017
-355.379
-331.22
-318.74
-315.955
-318.782
-318.475
-309.508
-289.129
-256.22
-216.78
-178.319
-145.156
-121.328
-106.452
-96.903
-91.155
-87.546
-85.044
-84.257
-84.684
-85.394
-85.898
-85.473
-83.725
-80.881
-77.312
-73.438
-69.789
-66.676
-64.143
-62.22
-60.885
-59.977
-59.292
-58.532
-57.291
-55.343
-52.642
-49.183
-45.033
-40.286
-35.016
-29.386
-23.644
-17.944
-12.37
-6.963
-1.695
3.427
8.369
13.113
17.647
21.963
26.068
29.957
33.616
37.061
40.323
43.456
46.539
49.626
52.744
55.914
59.141
62.426
65.772
69.171
72.603
76.055
79.517
82.979
86.437
89.881
93.289
96.64
99.906
103.059
106.076
108.932
111.607
114.078
116.329
118.343
120.11
121.618
122.853
123.802
124.45
124.785
124.797
124.475
123.811
122.798
121.433
119.715
117.647
115.231
112.473
109.382
105.966
102.237
98.209
93.896
89.316
84.486
79.427
74.159
68.705
63.09
57.336
51.47
45.517
39.503
33.454
27.394
21.347
15.339
9.39
3.525
-2.236
-7.873
-13.368
-18.702
-23.859
-28.824
-33.586
-38.133
-42.457
-46.551
-50.409
-54.028
-57.408
-60.547
-63.449
-66.116
-68.553
-70.764
-72.757
-74.539
-76.119
-77.507
-78.713
-79.747
-80.621
-81.347
-81.937
-82.403
-82.755
-83.005
-83.161
-83.235
-83.234
-83.166
-83.038
-82.855
-82.623
-82.348
-82.034
-81.682
-81.295
-80.872
-80.416
-79.923
-79.392
-78.819
-78.199
-77.53
-76.807
-76.028
-75.189
-74.285
-73.314
-72.271
-71.153
-69.958
-68.681
-67.318
-65.866
-64.321
-62.685
-60.956
-59.137
-57.231
-55.243
-53.18
-51.053
-48.87
-46.638
-44.365
-42.06
-39.732
-37.389
-35.037
-32.683
-30.338
-28.016
-25.732
-23.501
-21.336
-19.244
-17.238
-15.328
-13.523
-11.824
-10.229
-8.737
-7.358
-6.111
-5.024
-4.118
-3.396
-2.862
-2.519
-2.368
-2.4
-2.584
-2.868
-3.199
-3.551
-3.926
-4.335
-4.778
-5.238
-5.68
-6.07
-6.406
-6.697
-6.933
-7.1
-7.183
-7.204
-7.255
-7.494
-8.061
-9.043
-10.471
-12.339
-14.671
-17.546
-20.994
-24.923
-29.118
-33.279
-37.163
-40.65
-43.589
-45.652
-46.564
-46.243
-44.91
-43.243
-41.916
-41.392
-42.2
-44.921
-50.021
-57.025
-64.148
-69.045
-69.229
-64.031
-55.565
-45.136
-32.998
-17.708
7.32
47.74
105.913
182.419
269.921
356.55
429.998
476.536
486.062
453.962
380.667
270.998
134.273
-16.188
-166.137
-299.377
-400.946
-462.901
-483.862
-469.083
-430.11
-378.84
-324.256
-274.468
-233.299
-200.049
-173.52
-149.418
-123.513
-96.106
-68.738
-44.471
-27.029
-16.792
-12.39
-11.957
-12.829
-13.32
-12.673
-10.499
-6.96
-2.365
3.017
8.796
14.435
19.345
22.935
24.969
25.632
25.204
24.001
22.299
20.313
18.358
16.856
16.12
16.289
17.404
19.406
22.252
25.947
30.426
35.553
41.146
46.99
52.945
58.954
64.98
70.988
76.937
82.758
88.401
93.857
99.117
104.164
108.98
113.533
117.819
121.872
125.75
129.522
133.234
136.902
140.534
144.135
147.705
151.245
154.737
158.149
161.459
164.651
167.716
170.648
173.435
176.055
178.482
180.693
182.667
184.385
185.83
186.984
187.834
188.371
188.59
188.49
188.071
187.327
186.256
184.854
183.121
181.055
178.658
175.928
172.87
169.489
165.793
161.791
157.495
152.916
148.068
142.967
137.628
132.068
126.304
120.354
114.237
107.974
101.583
95.087
88.505
81.859
75.171
68.461
61.751
55.06
48.407
41.811
35.29
28.861
22.54
16.344
10.287
4.383
-1.355
-6.914
-12.284
-17.457
-22.423
-27.178
-31.716
-36.035
-40.132
-44.006
-47.658
-51.089
-54.302
-57.3
-60.088
-62.671
-65.055
-67.249
-69.259
-71.096
-72.766
-74.279
-75.644
-76.869
-77.964
-78.938
-79.8
-80.557
-81.219
-81.794
-82.291
-82.717
-83.08
-83.386
-83.642
-83.852
-84.022
-84.154
-84.252
-84.318
-84.354
-84.361
-84.34
-84.293
-84.217
-84.113
-83.979
-83.812
-83.61
-83.37
-83.087
-82.757
-82.378
-81.945
-81.459
-80.916
-80.315
-79.654
-78.933
-78.151
-77.308
-76.405
-75.439
-74.412
-73.326
-72.184
-70.989
-69.747
-68.464
-67.147
-65.808
-64.458
-63.104
-61.757
-60.426
-59.119
-57.846
-56.613
-55.426
-54.293
-53.223
-52.23
-51.327
-50.525
-49.834
-49.261
-48.814
-48.495
-48.308
-48.248
-48.305
-48.474
-48.759
-49.171
-49.731
-50.45
-51.324
-52.351
-53.529
-54.845
-56.279
-57.792
-59.319
-60.817
-62.271
-63.681
-65.06
-66.41
-67.707
-68.925
-70.036
-71.022
-71.876
-72.575
-73.088
-73.419
-73.604
-73.747
-74.005
-74.488
-75.247
-76.305
-77.653
-79.296
-81.295
-83.651
-86.272
-89.014
-91.641
-93.954
-95.853
-97.154
-97.538
-96.71
-94.514
-91.118
-87.188
-83.437
-80.307
-78.306
-78.018
-79.87
-84.138
-89.828
-94.339
-95.172
-90.148
-79.517
-66.03
-50.994
-35.105
-14.938
16.905
64.424
129.651
208.014
287.192
355.172
399.292
411.646
390.431
335.392
250.69
139.066
4.737
-140.97
-285.54
-410.588
-497.971
-542.364
-545.317
-516.553
-472.702
-423.06
-373.93
-331.022
-292.672
-258.667
-228.359
-196.9
-164.511
-132.924
-103.748
-81.199
-66.382
-57.864
-54.512
-54.007
-54.34
-54.576
-53.66
-51.126
-47.199
-42.111
-36.071
-29.451
-22.764
-16.601
-11.698
-8.374
-6.402
-5.509
-5.412
-5.859
-6.685
-7.588
-8.094
-7.878
-6.82
-4.895
-2.188
1.243
5.419
10.28
15.688
21.474
27.432
33.439
39.46
45.469
51.442
57.342
63.103
68.679
74.072
79.276
84.284
89.085
93.652
97.988
102.13
106.137
110.077
113.993
117.902
121.812
125.728
129.651
133.582
137.506
141.394
145.224
148.98
152.651
156.229
159.701
163.04
166.221
169.216
172.002
174.557
176.861
178.894
180.64
182.086
183.225
184.053
184.566
184.755
184.616
184.142
183.33
182.177
180.68
178.84
176.658
174.139
171.289
168.118
164.635
160.853
156.785
152.447
147.854
143.023
137.972
132.721
127.29
121.701
115.974
110.133
104.2
98.199
92.154
86.086
80.021
73.978
67.98
62.046
56.198
50.455
44.836
39.357
34.037
28.89
23.933
19.177
14.637
10.322
6.24
2.4
-1.193
-4.534
-7.619
-10.448
-13.018
-15.331
-17.387
-19.191
-20.745
-22.055
-23.128
-23.97
-24.591
-25
-25.207
-25.222
-25.056
-24.721
-24.229
-23.593
-22.825
-21.939
-20.949
-19.869
-18.713
-17.494
-16.228
-14.928
-13.607
-12.278
-10.954
-9.647
-8.37
-7.133
-5.948
-4.826
-3.779
-2.815
-1.945
-1.177
-0.517
0.026
0.448
0.744
0.911
0.946
0.849
0.617
0.251
-0.249
-0.881
-1.641
-2.526
-3.531
-4.648
-5.87
-7.188
-8.593
-10.073
-11.619
-13.221
-14.87
-16.554
-18.262
-19.984
-21.707
-23.421
-25.113
-26.77
-28.379
-29.929
-31.408
-32.807
-34.116
-35.329
-36.44
-37.445
-38.342
-39.128
-39.8
-40.355
-40.792
-41.108
-41.302
-41.37
-41.312
-41.13
-40.831
-40.424
-39.918
-39.321
-38.641
-37.886
-37.064
-36.182
-35.242
-34.24
-33.176
-32.059
-30.908
-29.755
-28.622
-27.521
-26.463
-25.457
-24.511
-23.626
-22.785
-21.942
-21.061
-20.121
-19.131
-18.124
-17.116
-16.106
-15.082
-14.013
-12.898
-11.756
-10.58
-9.351
-8.055
-6.7
-5.355
-4.184
-3.328
-2.877
-2.871
-3.284
-4.124
-5.457
-7.314
-9.655
-12.305
-14.982
-17.465
-19.648
-21.378
-22.407
-22.461
-21.305
-19.094
-16.403
-13.859
-12.142
-11.912
-13.74
-18.272
-25.289
-33.14
-39.844
-43.029
-41.54
-37.301
-31.419
-23.632
-12.164
10.062
49.543
108.714
187.651
278.509
369.027
447.906
502.258
523.536
507.975
453.004
361.739
239.668
95.158
-56.318
-198.067
-313.206
-388.402
-422.601
-422.344
-397.998
-362.49
-321.967
-279.372
-238.678
-199.759
-164.02
-132.263
-101.295
-71.584
-44.579
-21.671
-6.322
0.897
1.605
-2.791
-9.818
-17.255
-23.81
-28.2
-29.792
-28.789
-25.595
-20.611
-14.361
-7.454
-0.539
5.626
10.602
14.419
17.27
19.412
21.114
22.567
23.992
25.698
27.878
30.615
33.946
37.792
42.044
46.606
51.362
56.215
61.101
65.954
70.723
75.393
79.961
84.445
88.874
93.246
97.548
101.755
105.836
109.781
113.603
117.323
120.964
124.538
128.06
131.546
135.019
138.488
141.948
145.378
148.753
152.059
155.287
158.427
161.471
164.406
167.216
169.884
172.395
174.731
176.874
178.803
180.496
181.931
183.093
183.97
184.551
184.823
184.774
184.396
183.678
182.615
181.2
179.427
177.291
174.788
171.918
168.684
165.088
161.137
156.837
152.197
147.229
141.945
136.359
130.488
124.348
117.959
111.341
104.515
97.503
90.33
83.02
75.597
68.088
60.517
52.912
45.297
37.697
30.137
22.641
15.23
7.928
0.753
-6.274
-13.135
-19.813
-26.292
-32.559
-38.602
-44.409
-49.971
-55.282
-60.335
-65.126
-69.653
-73.915
-77.913
-81.648
-85.124
-88.345
-91.317
-94.048
-96.545
-98.816
-100.871
-102.72
-104.374
-105.841
-107.134
-108.262
-109.236
-110.066
-110.761
-111.33
-111.783
-112.127
-112.369
-112.516
-112.575
-112.55
-112.447
-112.269
-112.021
-111.704
-111.322
-110.875
-110.365
-109.793
-109.158
-108.46
-107.698
-106.872
-105.98
-105.022
-103.995
-102.9
-101.736
-100.501
-99.196
-97.821
-96.376
-94.861
-93.279
-91.631
-89.92
-88.148
-86.321
-84.442
-82.518
-80.553
-78.554
-76.528
-74.481
-72.42
-70.353
-68.287
-66.231
-64.192
-62.178
-60.199
-58.263
-56.379
-54.554
-52.796
-51.112
-49.508
-47.992
-46.567
-45.237
-44.005
-42.875
-41.85
-40.931
-40.119
-39.413
-38.813
-38.318
-37.923
-37.625
-37.419
-37.299
-37.259
-37.292
-37.392
-37.555
-37.773
-38.039
-38.347
-38.69
-39.061
-39.452
-39.856
-40.262
-40.662
-41.05
-41.42
-41.765
-42.08
-42.362
-42.609
-42.823
-43.004
-43.152
-43.266
-43.345
-43.389
-43.399
-43.373
-43.308
-43.202
-43.06
-42.884
-42.68
-42.451
-42.199
-41.924
-41.63
-41.316
-40.981
-40.62
-40.227
-39.799
-39.345
-38.881
-38.43
-38.009
-37.625
-37.289
-37.012
-36.791
-36.617
-36.461
-36.267
-36.005
-35.666
-35.246
-34.753
-34.187
-33.517
-32.729
-31.815
-30.759
-29.551
-28.168
-26.561
-24.745
-22.793
-20.818
-19.009
-17.495
-16.319
-15.562
-15.309
-15.594
-16.443
-17.73
-19.148
-20.487
-21.618
-22.389
-22.676
-22.338
-21.249
-19.64
-18.058
-17.074
-17.204
-18.918
-22.7
-28.959
-37.967
-48.789
-59.059
-66.351
-68.188
-63.68
-54.751
-42.625
-27.511
-8.375
20.647
64.977
126.55
205.596
294.634
381.875
456.576
506.229
521.561
497.215
428.461
315.868
166.37
-6.65
-181.409
-334.059
-446.173
-508.803
-526.79
-513.55
-482.158
-442.522
-397.919
-348.246
-296.774
-248.418
-208.04
-178.914
-158.69
-142.188
-126.283
-109.56
-93.511
-81.443
-74.209
-70.936
-69.778
-68.003
-64.143
-58.099
-50.209
-41.192
-31.702
-22.154
-13.085
-5.173
0.963
5.055
7.216
7.807
7.288
6.02
4.273
2.34
0.554
-0.838
-1.669
-1.839
-1.34
-0.174
1.677
4.206
7.375
11.113
15.306
19.786
24.399
29.038
33.633
38.148
42.55
46.797
50.849
54.677
58.273
61.632
64.743
67.595
70.177
72.507
74.632
76.621
78.548
80.463
82.395
84.363
86.381
88.457
90.596
92.787
95.013
97.262
99.527
101.806
104.098
106.393
108.675
110.924
113.116
115.233
117.257
119.172
120.961
122.611
124.112
125.456
126.641
127.658
128.501
129.159
129.624
129.886
129.937
129.769
129.375
128.748
127.885
126.783
125.441
123.86
122.041
119.987
117.703
115.191
112.46
109.515
106.366
103.02
99.488
95.781
91.911
87.89
83.732
79.451
75.061
70.575
66.009
61.375
56.689
51.964
47.215
42.457
37.704
32.971
28.271
23.619
19.03
14.515
10.089
5.762
1.545
-2.551
-6.516
-10.341
-14.019
-17.542
-20.904
-24.099
-27.123
-29.97
-32.639
-35.126
-37.431
-39.551
-41.487
-43.238
-44.807
-46.193
-47.399
-48.428
-49.283
-49.967
-50.484
-50.84
-51.04
-51.089
-50.995
-50.763
-50.402
-49.92
-49.323
-48.622
-47.825
-46.941
-45.98
-44.951
-43.864
-42.729
-41.557
-40.356
-39.138
-37.911
-36.685
-35.47
-34.276
-33.111
-31.985
-30.906
-29.883
-28.924
-28.036
-27.228
-26.505
-25.875
-25.343
-24.915
-24.595
-24.387
-24.295
-24.321
-24.467
-24.735
-25.124
-25.635
-26.265
-27.013
-27.875
-28.849
-29.929
-31.111
-32.39
-33.758
-35.21
-36.738
-38.334
-39.991
-41.699
-43.451
-45.237
-47.048
-48.875
-50.709
-52.54
-54.359
-56.156
-57.922
-59.649
-61.326
-62.946
-64.499
-65.979
-67.378
-68.689
-69.906
-71.024
-72.038
-72.944
-73.74
-74.422
-74.989
-75.441
-75.777
-75.997
-76.104
-76.1
-75.987
-75.769
-75.451
-75.037
-74.53
-73.937
-73.263
-72.512
-71.691
-70.806
-69.863
-68.869
-67.83
-66.754
-65.648
-64.518
-63.371
-62.214
-61.051
-59.89
-58.735
-57.589
-56.457
-55.343
-54.25
-53.181
-52.138
-51.123
-50.136
-49.176
-48.244
-47.337
-46.454
-45.589
-44.741
-43.905
-43.081
-42.265
-41.455
-40.65
-39.845
-39.04
-38.231
-37.417
-36.595
-35.759
-34.907
-34.037
-33.148
-32.24
-31.312
-30.365
-29.402
-28.428
-27.447
-26.462
-25.475
-24.489
-23.507
-22.532
-21.565
-20.608
-19.661
-18.732
-17.828
-16.956
-16.125
-15.337
-14.596
-13.904
-13.26
-12.664
-12.108
-11.581
-11.081
-10.612
-10.19
-9.836
-9.562
-9.369
-9.263
-9.247
-9.315
-9.458
-9.641
-9.813
-9.945
-10.028
-10.068
-10.084
-10.075
-10.02
-9.89
-9.655
-9.295
-8.799
-8.136
-7.266
-6.175
-4.888
-3.508
-2.191
-1.046
-0.129
0.551
0.987
1.118
0.889
0.31
-0.468
-1.195
-1.635
-1.65
-1.123
0.152
2.395
5.756
10.031
14.575
18.638
21.428
22.225
20.465
15.537
7.566
-1.827
-10.551
-16.267
-17.436
-15.047
-9.763
-0.26
15.949
43.834
87.913
147.792
220.931
302.449
384.591
461.249
524.156
563.033
568.895
533.049
452.934
331.853
179.131
11.751
-151.637
-291.256
-391.057
-445.09
-455.629
-431.369
-384.238
-324.5
-259.272
-195.576
-139.324
-93.065
-57.725
-29.953
-4.209
21.238
46.127
67.801
82.256
89.05
89.559
85.826
80.87
76.249
72.541
70.436
69.861
70.449
72.058
74.246
76.502
78.539
79.96
80.374
79.726
78.114
75.67
72.663
69.361
66.005
62.954
60.54
58.922
58.158
58.228
59.057
60.565
62.645
65.115
67.754
70.423
73.056
75.636
78.173
80.653
83.035
85.28
87.386
89.351
91.168
92.834
94.332
95.675
96.904
98.09
99.31
100.617
102.036
103.582
105.263
107.086
109.054
111.157
113.373
115.686
118.083
120.56
123.11
125.72
128.368
131.025
133.664
136.257
138.782
141.214
143.528
145.701
147.716
149.558
151.215
152.673
153.915
154.927
155.691
156.193
156.42
156.359
155.996
155.322
154.33
153.014
151.372
149.402
147.106
144.485
141.544
138.29
134.73
130.876
126.737
122.329
117.665
112.764
107.643
102.322
96.822
91.165
85.375
79.473
73.485
67.432
61.338
55.227
49.123
43.049
37.028
31.081
25.232
19.501
13.908
8.474
3.215
-1.852
-6.711
-11.35
-15.755
-19.917
-23.827
-27.478
-30.863
-33.979
-36.823
-39.394
-41.694
-43.724
-45.488
-46.99
-48.238
-49.237
-49.997
-50.526
-50.834
-50.932
-50.83
-50.542
-50.077
-49.451
-48.674
-47.76
-46.722
-45.573
-44.327
-42.997
-41.596
-40.137
-38.632
-37.094
-35.535
-33.967
-32.4
-30.846
-29.314
-27.813
-26.353
-24.941
-23.585
-22.292
-21.067
-19.916
-18.845
-17.856
-16.954
-16.142
-15.422
-14.797
-14.267
-13.834
-13.499
-13.262
-13.122
-13.078
-13.131
-13.277
-13.515
-13.843
-14.258
-14.755
-15.332
-15.984
-16.708
-17.497
-18.348
-19.254
-20.212
-21.214
-22.257
-23.333
-24.438
-25.566
-26.711
-27.869
-29.035
-30.202
-31.368
-32.526
-33.673
-34.804
-35.915
-37.003
-38.065
-39.098
-40.098
-41.065
-41.997
-42.893
-43.753
-44.575
-45.362
-46.114
-46.833
-47.52
-48.18
-48.815
-49.43
-50.028
-50.614
-51.193
-51.772
-52.354
-52.945
-53.55
-54.174
-54.822
-55.5
-56.211
-56.96
-57.752
-58.591
-59.48
-60.422
-61.42
-62.476
-63.589
-64.761
-65.991
-67.276
-68.614
-70.003
-71.438
-72.915
-74.43
-75.976
-77.545
-79.131
-80.724
-82.316
-83.896
-85.453
-86.975
-88.452
-89.873
-91.227
-92.504
-93.695
-94.788
-95.775
-96.647
-97.395
-98.011
-98.487
-98.816
-98.99
-99.007
-98.864
-98.559
-98.094
-97.472
-96.698
-95.778
-94.718
-93.526
-92.208
-90.772
-89.226
-87.576
-85.831
-84
-82.096
-80.133
-78.129
-76.098
-74.057
-72.017
-69.992
-67.996
-66.038
-64.121
-62.251
-60.435
-58.689
-57.042
-55.519
-54.132
-52.891
-51.797
-50.849
-50.046
-49.376
-48.802
-48.289
-47.801
-47.318
-46.852
-46.411
-45.991
-45.572
-45.109
-44.573
-43.975
-43.341
-42.676
-41.999
-41.319
-40.672
-40.184
-39.982
-40.173
-40.842
-41.999
-43.625
-45.755
-48.487
-51.867
-55.841
-60.215
-64.657
-68.892
-72.733
-75.927
-78.085
-78.853
-78.104
-76.009
-73.164
-70.363
-68.3
-67.698
-69.416
-73.533
-79.083
-84.792
-88.656
-89.665
-88.855
-86.783
-82.956
-74.667
-56.332
-22.231
30.772
101.739
186.087
275.391
359.98
431.177
479.348
496.972
478.437
418.682
318.283
182.462
22.017
-144.207
-295.554
-413.844
-488.222
-520.205
-520.401
-501.662
-473.184
-438.387
-396.705
-348.877
-300.103
-255.998
-220.331
-193.062
-169.758
-147.596
-126.205
-106.949
-93.007
-85.259
-82.787
-84.067
-86.514
-88.437
-89.012
-87.805
-85.088
-81.271
-76.536
-71.188
-65.692
-60.514
-56.233
-53.126
-51.053
-49.802
-49.152
-48.886
-48.822
-48.702
-48.129
-46.817
-44.68
-41.696
-37.937
-33.496
-28.423
-22.845
-16.974
-10.991
-5.036
0.801
6.51
12.085
17.498
22.733
27.77
32.575
37.144
41.465
45.515
49.295
52.818
56.116
59.256
62.302
65.298
68.277
71.253
74.232
77.219
80.214
83.201
86.172
89.116
92.028
94.911
97.761
100.57
103.324
106.004
108.588
111.061
113.404
115.599
117.629
119.482
121.144
122.61
123.872
124.92
125.745
126.334
126.676
126.762
126.581
126.123
125.379
124.341
123.005
121.368
119.429
117.187
114.642
111.797
108.658
105.228
101.516
97.529
93.275
88.766
84.014
79.035
73.843
68.454
62.885
57.155
51.282
45.285
39.181
32.984
26.712
20.382
14.01
7.612
1.204
-5.198
-11.575
-17.905
-24.171
-30.353
-36.436
-42.404
-48.245
-53.946
-59.499
-64.903
-70.156
-75.26
-80.214
-85.009
-89.645
-94.121
-98.447
-102.639
-106.709
-110.661
-114.5
-118.234
-121.863
-125.379
-128.75
-131.922
-134.844
-137.468
-139.757
-141.689
-143.233
-144.36
-145.045
-145.246
-144.937
-144.114
-142.78
-140.948
-138.656
-135.965
-132.971
-129.848
-126.79
-123.923
-121.286
-118.842
-116.462
-114.048
-111.603
-109.057
-106.249
-103.217
-100.134
-97.412
-95.781
-95.68
-97.073
-99.91
-104.091
-109.145
-114.463
-118.825
-120.263
-117.386
-109.427
-95.649
-75.621
-49.161
-16.179
22.363
64.486
108.631
153.46
197.516
239.55
278.027
311.361
339.001
361.186
378.15
390.335
398.32
402.769
404.918
406.106
407.067
408.155
409.53
411.152
412.993
414.918
416.468
417.207
416.974
415.792
413.827
411.324
408.452
405.405
402.453
399.768
397.391
395.275
393.299
391.322
389.234
386.904
384.162
380.897
377.04
372.54
367.386
361.567
355.065
347.884
340.057
331.62
322.621
313.123
303.176
292.846
282.208
271.34
260.33
249.248
238.143
227.063
216.045
205.122
194.33
183.69
173.215
162.919
152.821
142.932
133.27
123.844
114.657
105.71
97.002
88.529
80.294
72.3
64.547
57.039
49.777
42.766
36.013
29.52
23.284
17.3
11.555
6.038
0.739
-4.351
-9.245
-13.952
-18.482
-22.841
-27.027
-31.045
-34.901
-38.611
-42.206
-45.707
-49.124
-52.468
-55.745
-58.958
-62.114
-65.201
-68.183
-71.032
-73.72
-76.244
-78.635
-80.902
-83.043
-85.049
-86.883
-88.539
-90.053
-91.431
-92.668
-93.769
-94.728
-95.606
-96.548
-97.668
-99.075
-100.825
-102.896
-105.32
-108.173
-111.475
-115.215
-119.249
-123.266
-127.044
-130.462
-133.336
-135.46
-136.613
-136.592
-135.555
-134.036
-132.61
-131.776
-132.001
-133.774
-137.495
-143.442
-150.862
-157.684
-161.587
-160.242
-153.02
-141.933
-129.125
-115.98
-101.091
-78.024
-39.388
19.799
99.16
189.534
275.86
342.052
375.804
370.94
327.819
251.653
147.688
23.302
-111.476
-245.232
-362.762
-451.198
-504.472
-523.692
-516.777
-492.738
-459.145
-419.982
-378.236
-338.934
-304.664
-277.419
-256.361
-236.256
-215.343
-193.96
-173.724
-158.81
-150.551
-147.959
-150.038
-154.631
-159.958
-165.161
-169.167
-171.377
-171.803
-170.447
-167.36
-162.82
-157.203
-151.04
-145.056
-139.633
-134.789
-130.481
-126.576
-122.952
-119.54
-116.15
-112.497
-108.446
-103.98
-99.138
-94.032
-88.72
-83.221
-77.591
-71.906
-66.235
-60.618
-55.052
-49.511
-43.975
-38.432
-32.876
-27.303
-21.693
-16.028
-10.303
-4.514
1.332
7.23
13.182
19.189
25.251
31.366
37.525
43.716
49.93
56.154
62.373
68.572
74.729
80.826
86.844
92.768
98.581
104.266
109.805
115.181
120.379
125.38
130.168
134.724
139.03
143.072
146.835
150.306
153.473
156.328
158.862
161.07
162.948
164.494
165.708
166.59
167.145
167.376
167.291
166.898
166.208
165.232
163.982
162.475
160.725
158.749
156.564
154.189
151.641
148.94
146.105
143.156
140.112
136.991
133.814
130.599
127.363
124.125
120.901
117.705
114.552
111.454
108.423
105.467
102.596
99.816
97.131
94.545
92.059
89.675
87.39
85.201
83.105
81.096
79.167
77.311
75.52
73.783
72.091
70.434
68.801
67.181
65.563
63.937
62.29
60.615
58.899
57.135
55.314
53.428
51.471
49.436
47.319
45.116
42.824
40.442
37.97
35.41
32.762
30.031
27.222
24.34
21.392
18.387
15.332
12.239
9.118
5.978
2.833
-0.306
-3.427
-6.517
-9.564
-12.557
-15.482
-18.328
-21.084
-23.739
-26.284
-28.71
-31.007
-33.17
-35.191
-37.065
-38.788
-40.357
-41.769
-43.025
-44.125
-45.069
-45.861
-46.505
-47.007
-47.372
-47.608
-47.723
-47.728
-47.632
-47.446
-47.181
-46.851
-46.467
-46.042
-45.59
-45.124
-44.657
-44.203
-43.775
-43.386
-43.05
-42.778
-42.581
-42.472
-42.459
-42.552
-42.76
-43.091
-43.552
-44.148
-44.884
-45.764
-46.792
-47.968
-49.292
-50.763
-52.379
-54.136
-56.029
-58.053
-60.2
-62.462
-64.832
-67.3
-69.856
-72.49
-75.188
-77.94
-80.732
-83.55
-86.381
-89.209
-92.02
-94.798
-97.53
-100.202
-102.8
-105.309
-107.716
-110.007
-112.17
-114.193
-116.061
-117.764
-119.289
-120.628
-121.772
-122.714
-123.449
-123.973
-124.281
-124.372
-124.246
-123.901
-123.34
-122.563
-121.57
-120.368
-118.962
-117.359
-115.568
-113.599
-111.463
-109.177
-106.757
-104.215
-101.568
-98.828
-96.011
-93.13
-90.199
-87.229
-84.232
-81.222
-78.218
-75.239
-72.301
-69.419
-66.604
-63.869
-61.226
-58.684
-56.246
-53.908
-51.672
-49.548
-47.553
-45.716
-44.053
-42.567
-41.261
-40.137
-39.195
-38.427
-37.805
-37.28
-36.804
-36.357
-35.943
-35.577
-35.257
-34.966
-34.671
-34.337
-33.963
-33.556
-33.107
-32.598
-32.014
-31.365
-30.733
-30.259
-30.072
-30.247
-30.81
-31.751
-33.093
-34.938
-37.326
-40.172
-43.262
-46.271
-48.936
-51.149
-52.762
-53.436
-52.917
-51.162
-48.471
-45.653
-43.497
-42.52
-43.251
-46.307
-52.143
-60.136
-68.49
-74.987
-77.088
-74.521
-69.155
-60.479
-47.706
-27.958
5.394
53.676
115.783
189.115
264.47
334.915
394.184
433.295
447.189
430.288
377.282
288.937
168.615
25.294
-124.28
-261.912
-369.919
-436.42
-461.551
-454.029
-425.962
-387.52
-343.329
-293.869
-240.453
-188.272
-142.62
-107.308
-82.396
-62.735
-44.738
-27.426
-11.687
-0.765
4.257
4.457
1.684
-1.507
-3.628
-4.085
-2.738
0.038
3.919
8.661
13.839
19.117
24.144
28.418
31.791
34.338
36.15
37.445
38.413
39.183
39.992
41.165
42.906
45.316
48.42
52.13
56.358
61.015
65.941
70.977
75.989
80.881
85.621
90.214
94.664
98.975
103.15
107.169
111.008
114.645
118.05
121.216
124.146
126.866
129.425
131.868
134.24
136.573
138.882
141.173
143.445
145.688
147.884
150.021
152.091
154.087
156.013
157.864
159.634
161.312
162.884
164.335
165.648
166.81
167.803
168.615
169.237
169.66
169.882
169.898
169.705
169.297
168.67
167.818
166.738
165.424
163.874
162.083
160.051
157.777
155.263
152.513
149.531
146.32
142.887
139.238
135.382
131.327
127.082
122.655
118.058
113.301
108.398
103.359
98.198
92.93
87.567
82.124
76.617
71.059
65.466
59.851
54.228
48.612
43.016
37.455
31.941
26.488
21.109
15.818
10.625
5.544
0.584
-4.244
-8.932
-13.469
-17.849
-22.063
-26.106
-29.97
-33.649
-37.14
-40.436
-43.535
-46.433
-49.127
-51.615
-53.896
-55.967
-57.829
-59.481
-60.923
-62.156
-63.181
-63.999
-64.613
-65.025
-65.239
-65.257
-65.083
-64.723
-64.182
-63.464
-62.576
-61.524
-60.315
-58.956
-57.456
-55.822
-54.063
-52.187
-50.204
-48.125
-45.958
-43.714
-41.405
-39.04
-36.633
-34.194
-31.736
-29.27
-26.81
-24.369
-21.958
-19.591
-17.28
-15.04
-12.881
-10.817
-8.86
-7.023
-5.316
-3.751
-2.338
-1.088
-0.01
0.886
1.594
2.105
2.414
2.515
2.402
2.072
1.523
0.751
-0.243
-1.46
-2.899
-4.558
-6.434
-8.522
-10.817
-13.312
-16
-18.872
-21.918
-25.129
-28.491
-31.993
-35.622
-39.364
-43.204
-47.126
-51.113
-55.15
-59.219
-63.303
-67.383
-71.443
-75.464
-79.429
-83.322
-87.126
-90.824
-94.399
-97.837
-101.121
-104.237
-107.171
-109.909
-112.437
-114.745
-116.824
-118.663
-120.257
-121.597
-122.68
-123.501
-124.057
-124.346
-124.369
-124.125
-123.615
-122.845
-121.819
-120.547
-119.036
-117.297
-115.342
-113.183
-110.834
-108.31
-105.625
-102.793
-99.83
-96.752
-93.578
-90.326
-87.015
-83.666
-80.298
-76.936
-73.603
-70.316
-67.096
-63.96
-60.925
-58.006
-55.215
-52.562
-50.058
-47.714
-45.544
-43.561
-41.777
-40.198
-38.829
-37.673
-36.731
-35.998
-35.464
-35.113
-34.932
-34.917
-35.072
-35.41
-35.933
-36.632
-37.496
-38.519
-39.681
-40.957
-42.301
-43.643
-44.933
-46.151
-47.293
-48.366
-49.367
-50.273
-51.058
-51.694
-52.162
-52.455
-52.547
-52.403
-52.024
-51.438
-50.739
-50.084
-49.584
-49.289
-49.226
-49.39
-49.789
-50.501
-51.545
-52.822
-54.179
-55.392
-56.273
-56.74
-56.632
-55.616
-53.385
-49.832
-45.209
-40.181
-35.418
-31.46
-28.876
-28.288
-30.356
-34.715
-39.596
-42.984
-42.605
-37.896
-31.063
-22.77
-12.367
2.269
27.801
68.854
126.174
198.795
278.765
355.814
420.903
463.462
477.786
460.629
409.219
325.864
211.875
72.955
-76.94
-222.987
-345.35
-427.461
-466.512
-466.074
-437.05
-394.672
-346.506
-297.977
-254.295
-214.741
-179.884
-148.976
-117.32
-84.982
-53.742
-25.797
-5.47
6.28
11.057
10.355
6.657
2.013
-2.492
-5.662
-6.895
-6.303
-4.103
-0.567
3.91
8.843
13.659
17.679
20.574
22.403
23.331
23.572
23.329
22.786
22.24
22.101
22.651
23.993
26.138
29.016
32.546
36.662
41.229
46.032
50.886
55.677
60.349
64.904
69.354
73.677
77.858
81.886
85.739
89.402
92.858
96.08
99.062
101.82
104.393
106.845
109.243
111.626
114.02
116.438
118.883
121.359
123.86
126.368
128.87
131.358
133.829
136.284
138.72
141.128
143.492
145.793
148.011
150.128
152.125
153.983
155.687
157.223
158.579
159.751
160.73
161.508
162.074
162.418
162.529
162.399
162.016
161.37
160.453
159.258
157.78
156.016
153.963
151.622
148.992
146.076
142.876
139.398
135.648
131.631
127.356
122.834
118.075
113.093
107.9
102.512
96.946
91.218
85.346
79.349
73.245
67.054
60.793
54.483
48.142
41.79
35.446
29.13
22.86
16.657
10.538
4.521
-1.378
-7.142
-12.758
-18.21
-23.487
-28.576
-33.468
-38.153
-42.622
-46.869
-50.888
-54.674
-58.224
-61.536
-64.61
-67.445
-70.043
-72.406
-74.537
-76.441
-78.121
-79.583
-80.834
-81.879
-82.726
-83.381
-83.854
-84.151
-84.281
-84.252
-84.072
-83.751
-83.295
-82.714
-82.014
-81.204
-80.291
-79.282
-78.183
-77.002
-75.744
-74.414
-73.018
-71.561
-70.047
-68.479
-66.862
-65.199
-63.494
-61.749
-59.968
-58.153
-56.308
-54.436
-52.539
-50.621
-48.684
-46.733
-44.772
-42.803
-40.832
-38.863
-36.902
-34.954
-33.026
-31.123
-29.252
-27.42
-25.635
-23.905
-22.238
-20.642
-19.127
-17.702
-16.376
-15.16
-14.064
-13.096
-12.266
-11.583
-11.057
-10.695
-10.506
-10.496
-10.671
-11.039
-11.603
-12.368
-13.337
-14.51
-15.889
-17.472
-19.256
-21.238
-23.413
-25.773
-28.313
-31.022
-33.892
-36.911
-40.067
-43.346
-46.733
-50.212
-53.764
-57.371
-61.013
-64.669
-68.318
-71.937
-75.507
-79.006
-82.41
-85.698
-88.848
-91.839
-94.651
-97.261
-99.651
-101.801
-103.694
-105.315
-106.65
-107.69
-108.423
-108.842
-108.939
-108.713
-108.158
-107.274
-106.06
-104.516
-102.647
-100.457
-97.956
-95.155
-92.068
-88.714
-85.114
-81.288
-77.258
-73.047
-68.676
-64.167
-59.541
-54.819
-50.02
-45.163
-40.277
-35.388
-30.523
-25.704
-20.946
-16.263
-11.67
-7.184
-2.816
1.425
5.536
9.509
13.32
16.937
20.325
23.457
26.326
28.931
31.261
33.3
35.032
36.457
37.612
38.55
39.314
39.92
40.365
40.643
40.794
40.918
41.064
41.184
41.144
40.813
40.203
39.472
38.76
38.017
37.152
36.214
35.504
35.425
36.077
37.154
38.196
39.016
39.665
40.127
40.073
38.991
36.723
33.624
30.315
26.967
23.31
19.07
14.083
8.374
1.77
-6.387
-16.219
-26.33
-34.927
-40.035
-40.933
-39.066
-34.95
-27.662
-14.245
9.891
48.543
103.625
174.114
257.117
346.932
434.646
509.729
560.18
574.647
545.979
473.046
359.429
215.461
57.175
-98.529
-232.813
-330.532
-386.043
-400.726
-382.787
-344.368
-295.21
-241.799
-189.769
-142.156
-99.842
-63.718
-31.673
-1.074
27.568
53.137
73.284
85.094
88.683
85.721
78.413
69.894
62.356
57.002
54.532
54.811
57.412
61.924
67.767
74.234
80.59
86.055
90.199
93.027
94.685
95.442
95.576
95.297
94.899
94.744
95.058
95.972
97.535
99.658
102.26
105.259
108.499
111.85
115.215
118.49
121.635
124.645
127.511
130.252
132.892
135.423
137.832
140.093
142.172
144.062
145.77
147.313
148.732
150.064
151.339
152.6
153.874
155.172
156.503
157.855
159.21
160.56
161.895
163.211
164.506
165.775
167.007
168.195
169.323
170.375
171.334
172.181
172.894
173.456
173.851
174.066
174.091
173.915
173.527
172.917
172.075
170.99
169.653
168.055
166.185
164.037
161.604
158.883
155.871
152.568
148.975
145.094
140.929
136.487
131.775
126.801
121.575
116.11
110.418
104.513
98.412
92.131
85.689
79.105
72.4
65.595
58.713
51.776
44.806
37.826
30.859
23.927
17.052
10.256
3.559
-3.018
-9.454
-15.731
-21.832
-27.74
-33.439
-38.916
-44.158
-49.155
-53.897
-58.376
-62.586
-66.521
-70.178
-73.555
-76.651
-79.467
-82.005
-84.268
-86.263
-87.994
-89.47
-90.698
-91.688
-92.45
-92.994
-93.333
-93.479
-93.442
-93.238
-92.877
-92.374
-91.74
-90.989
-90.132
-89.183
-88.153
-87.053
-85.894
-84.687
-83.442
-82.169
-80.875
-79.57
-78.26
-76.953
-75.655
-74.372
-73.109
-71.869
-70.657
-69.475
-68.326
-67.212
-66.134
-65.092
-64.088
-63.122
-62.192
-61.298
-60.439
-59.613
-58.821
-58.06
-57.33
-56.629
-55.955
-55.309
-54.689
-54.094
-53.524
-52.978
-52.456
-51.959
-51.486
-51.038
-50.617
-50.223
-49.857
-49.521
-49.215
-48.943
-48.706
-48.505
-48.343
-48.221
-48.143
-48.11
-48.125
-48.191
-48.308
-48.479
-48.705
-48.987
-49.327
-49.725
-50.181
-50.695
-51.267
-51.897
-52.583
-53.324
-54.116
-54.958
-55.846
-56.774
-57.739
-58.734
-59.754
-60.79
-61.838
-62.889
-63.938
-64.976
-65.995
-66.987
-67.943
-68.856
-69.715
-70.512
-71.237
-71.881
-72.437
-72.899
-73.258
-73.509
-73.646
-73.664
-73.559
-73.328
-72.966
-72.472
-71.842
-71.077
-70.175
-69.141
-67.979
-66.694
-65.295
-63.791
-62.194
-60.514
-58.764
-56.952
-55.09
-53.188
-51.255
-49.301
-47.336
-45.374
-43.43
-41.521
-39.66
-37.862
-36.14
-34.503
-32.963
-31.527
-30.195
-28.969
-27.853
-26.859
-26.012
-25.331
-24.823
-24.493
-24.339
-24.354
-24.534
-24.862
-25.296
-25.798
-26.326
-26.854
-27.389
-27.934
-28.479
-28.998
-29.444
-29.788
-30.041
-30.227
-30.347
-30.407
-30.412
-30.388
-30.454
-30.733
-31.327
-32.326
-33.759
-35.621
-37.967
-40.902
-44.45
-48.544
-52.953
-57.276
-61.194
-64.494
-66.916
-68.13
-67.87
-66.041
-62.95
-59.437
-56.433
-54.648
-54.634
-56.842
-61.481
-68.485
-77.256
-85.533
-89.922
-87.563
-75.993
-55.578
-29.527
0.408
32.864
70.025
117.936
179.612
256.136
342.848
427.665
497.644
539.388
541.7
499.54
413.039
286.086
129.364
-40.657
-205.892
-345.699
-444.52
-497.892
-508.99
-488.17
-448.661
-399.878
-347.993
-298.617
-254.849
-217.808
-187.887
-161.43
-134.357
-106.223
-77.913
-52.623
-34.326
-23.557
-19.252
-19.858
-22.708
-26.209
-29.571
-31.716
-32.327
-31.535
-29.321
-25.873
-21.616
-16.851
-12.032
-7.86
-4.585
-2.169
-0.562
0.452
1.072
1.421
1.78
2.548
3.966
6.147
9.113
12.754
16.971
21.672
26.684
31.834
36.977
42.012
46.911
51.685
56.344
60.896
65.344
69.671
73.857
77.883
81.729
85.391
88.881
92.229
95.49
98.715
101.954
105.24
108.59
112.011
115.5
119.047
122.634
126.246
129.873
133.508
137.149
140.787
144.41
148.001
151.539
155
158.361
161.596
164.68
167.591
170.307
172.813
175.093
177.132
178.914
180.425
181.648
182.566
183.165
183.43
183.348
182.905
182.091
180.899
179.324
177.362
175.01
172.269
169.14
165.628
161.737
157.476
152.853
147.88
142.568
136.933
130.993
124.765
118.269
111.527
104.562
97.4
90.064
82.582
74.979
67.281
59.516
51.71
43.89
36.082
28.313
20.608
12.993
5.493
-1.87
-9.072
-16.093
-22.914
-29.515
-35.881
-41.995
-47.845
-53.417
-58.701
-63.688
-68.37
-72.742
-76.799
-80.539
-83.96
-87.065
-89.855
-92.334
-94.507
-96.38
-97.961
-99.259
-100.282
-101.041
-101.546
-101.81
-101.844
-101.661
-101.273
-100.693
-99.935
-99.012
-97.937
-96.724
-95.385
-93.934
-92.384
-90.747
-89.036
-87.262
-85.438
-83.574
-81.682
-79.771
-77.852
-75.934
-74.026
-72.136
-70.272
-68.441
-66.65
-64.905
-63.211
-61.573
-59.998
-58.489
-57.05
-55.685
-54.398
-53.191
-52.069
-51.032
-50.084
-49.225
-48.459
-47.785
-47.206
-46.721
-46.332
-46.038
-45.84
-45.737
-45.729
-45.814
-45.991
-46.258
-46.614
-47.056
-47.581
-48.188
-48.872
-49.632
-50.463
-51.362
-52.325
-53.347
-54.424
-55.551
-56.721
-57.93
-59.171
-60.439
-61.727
-63.029
-64.341
-65.654
-66.964
-68.264
-69.548
-70.808
-72.039
-73.233
-74.384
-75.485
-76.53
-77.514
-78.431
-79.278
-80.048
-80.737
-81.34
-81.853
-82.272
-82.592
-82.81
-82.923
-82.926
-82.819
-82.602
-82.274
-81.836
-81.288
-80.631
-79.869
-79.002
-78.033
-76.964
-75.796
-74.535
-73.184
-71.75
-70.238
-68.656
-67.015
-65.323
-63.592
-61.829
-60.045
-58.246
-56.439
-54.631
-52.827
-51.032
-49.254
-47.499
-45.778
-44.1
-42.474
-40.907
-39.405
-37.97
-36.606
-35.315
-34.091
-32.931
-31.835
-30.813
-29.886
-29.071
-28.373
-27.795
-27.337
-26.993
-26.759
-26.617
-26.526
-26.45
-26.356
-26.223
-26.065
-25.886
-25.678
-25.42
-25.069
-24.6
-24.033
-23.381
-22.643
-21.831
-20.948
-20.047
-19.274
-18.758
-18.621
-18.956
-19.761
-21.071
-22.968
-25.491
-28.661
-32.359
-36.274
-40.134
-43.773
-46.97
-49.499
-51.112
-51.507
-50.813
-49.589
-48.431
-47.908
-48.581
-50.993
-55.677
-63.156
-72.514
-81.191
-86.735
-86.61
-80.367
-70.953
-59.854
-46.876
-29.847
-0.778
46.884
114.988
203.074
301.932
398.285
480.524
535.173
552.38
526.651
453.669
335.213
179.443
0.564
-180.15
-340.304
-461.411
-533.406
-558.305
-545.41
-507.764
-458.092
-403.471
-349.512
-300.161
-255.923
-217.91
-184.079
-150.289
-116.265
-82.767
-52.353
-29.553
-15.301
-8.256
-6.74
-7.884
-9.815
-11.9
-13.308
-13.391
-12.047
-9.347
-5.486
-0.991
3.656
8.146
12.031
14.933
16.801
17.714
17.813
17.377
16.666
15.929
15.544
15.849
17.001
19.057
21.991
25.729
30.193
35.273
40.775
46.466
52.191
57.876
63.499
69.063
74.549
79.91
85.103
90.125
94.973
99.641
104.12
108.391
112.459
116.365
120.177
123.969
127.793
131.671
135.614
139.629
143.718
147.883
152.111
156.374
160.653
164.933
169.206
173.464
177.693
181.867
185.958
189.936
193.776
197.451
200.938
204.211
207.249
210.034
212.551
214.79
216.739
218.383
219.707
220.697
221.341
221.628
221.547
221.087
220.24
219.003
217.372
215.349
212.932
210.127
206.937
203.371
199.435
195.141
190.499
185.522
180.226
174.626
168.741
162.589
156.191
149.568
142.744
135.741
128.585
121.297
113.903
106.427
98.893
91.326
83.749
76.187
68.663
61.201
53.823
46.551
39.408
32.412
25.582
18.936
12.49
6.259
0.258
-5.502
-11.009
-16.253
-21.226
-25.919
-30.329
-34.449
-38.276
-41.81
-45.05
-47.996
-50.652
-53.019
-55.103
-56.91
-58.444
-59.715
-60.729
-61.497
-62.026
-62.329
-62.415
-62.297
-61.986
-61.494
-60.834
-60.019
-59.062
-57.977
-56.776
-55.474
-54.083
-52.618
-51.09
-49.514
-47.903
-46.267
-44.621
-42.975
-41.341
-39.729
-38.149
-36.61
-35.122
-33.691
-32.324
-31.029
-29.811
-28.674
-27.623
-26.661
-25.793
-25.019
-24.343
-23.764
-23.284
-22.902
-22.618
-22.43
-22.337
-22.336
-22.425
-22.6
-22.857
-23.194
-23.604
-24.084
-24.629
-25.231
-25.886
-26.587
-27.329
-28.105
-28.91
-29.738
-30.584
-31.442
-32.308
-33.178
-34.046
-34.909
-35.761
-36.598
-37.415
-38.209
-38.975
-39.709
-40.408
-41.068
-41.688
-42.263
-42.791
-43.268
-43.692
-44.061
-44.372
-44.622
-44.808
-44.928
-44.982
-44.97
-44.891
-44.745
-44.532
-44.253
-43.908
-43.498
-43.023
-42.482
-41.874
-41.201
-40.464
-39.665
-38.806
-37.891
-36.927
-35.918
-34.871
-33.792
-32.687
-31.559
-30.413
-29.252
-28.079
-26.895
-25.705
-24.514
-23.329
-22.158
-21.01
-19.889
-18.799
-17.744
-16.727
-15.75
-14.806
-13.89
-13.003
-12.152
-11.359
-10.644
-10.013
-9.468
-9.01
-8.631
-8.331
-8.092
-7.879
-7.654
-7.383
-7.048
-6.663
-6.242
-5.782
-5.267
-4.656
-3.925
-3.089
-2.175
-1.195
-0.168
0.887
1.927
2.821
3.436
3.654
3.38
2.595
1.306
-0.519
-2.969
-6.098
-9.86
-14.045
-18.312
-22.376
-26.029
-29.038
-31.043
-31.68
-30.799
-28.653
-25.939
-23.428
-21.845
-21.945
-24.42
-29.912
-38.048
-46.885
-54.065
-56.946
-54.496
-48.831
-41.097
-31.047
-16.433
10.526
56.342
123.157
210.44
309.042
405.919
489.579
546.742
568.04
548.073
481.901
370.677
220.835
44.808
-136.682
-301.184
-428.17
-505.088
-532.458
-519.193
-480.557
-431.814
-381.648
-336.257
-297.412
-262.791
-231.62
-200.792
-167.154
-132.273
-98.113
-67.674
-44.937
-30.318
-22.355
-19.674
-20.097
-21.842
-24.096
-25.954
-26.56
-25.762
-23.693
-20.393
-16.208
-11.693
-7.222
-3.304
-0.434
1.398
2.346
2.528
2.217
1.675
1.14
1.017
1.678
3.265
5.823
9.323
13.673
18.815
24.656
31.009
37.647
44.39
51.136
57.846
64.506
71.083
77.523
83.764
89.784
95.577
101.135
106.441
111.473
116.218
120.701
124.976
129.109
133.143
137.099
140.983
144.796
148.538
152.209
155.796
159.272
162.612
165.801
168.83
171.693
174.379
176.869
179.138
181.165
182.932
184.422
185.622
186.517
187.097
187.353
187.286
186.897
186.188
185.156
183.803
182.128
180.133
177.823
175.2
172.269
169.036
165.509
161.701
157.622
153.287
148.709
143.903
138.888
133.678
128.293
122.75
117.068
111.265
105.361
99.377
93.331
87.243
81.133
75.019
68.922
62.859
56.848
50.905
45.047
39.287
33.64
28.121
22.74
17.511
12.443
7.546
2.829
-1.7
-6.034
-10.168
-14.099
-17.822
-21.337
-24.641
-27.734
-30.618
-33.292
-35.759
-38.022
-40.083
-41.946
-43.616
-45.096
-46.392
-47.509
-48.451
-49.224
-49.834
-50.286
-50.585
-50.737
-50.748
-50.623
-50.367
-49.986
-49.486
-48.871
-48.147
-47.32
-46.394
-45.376
-44.27
-43.081
-41.816
-40.48
-39.079
-37.618
-36.103
-34.541
-32.937
-31.297
-29.628
-27.936
-26.228
-24.512
-22.793
-21.08
-19.38
-17.701
-16.051
-14.438
-12.871
-11.358
-9.908
-8.529
-7.229
-6.018
-4.903
-3.893
-2.997
-2.221
-1.575
-1.064
-0.696
-0.477
-0.413
-0.509
-0.768
-1.194
-1.791
-2.56
-3.503
-4.621
-5.914
-7.381
-9.021
-10.83
-12.805
-14.941
-17.232
-19.67
-22.248
-24.956
-27.784
-30.721
-33.756
-36.877
-40.071
-43.325
-46.623
-49.951
-53.293
-56.633
-59.955
-63.242
-66.478
-69.647
-72.733
-75.72
-78.595
-81.344
-83.952
-86.406
-88.694
-90.805
-92.727
-94.452
-95.969
-97.271
-98.352
-99.21
-99.842
-100.251
-100.44
-100.412
-100.174
-99.732
-99.095
-98.271
-97.268
-96.091
-94.75
-93.258
-91.627
-89.872
-88.011
-86.06
-84.037
-81.961
-79.847
-77.713
-75.57
-73.426
-71.294
-69.187
-67.122
-65.13
-63.235
-61.455
-59.808
-58.303
-56.94
-55.721
-54.631
-53.639
-52.725
-51.863
-51.032
-50.235
-49.465
-48.715
-47.98
-47.228
-46.43
-45.582
-44.691
-43.779
-42.897
-42.087
-41.413
-40.978
-40.877
-41.217
-42.106
-43.605
-45.761
-48.595
-52.12
-56.427
-61.562
-67.439
-73.844
-80.414
-86.754
-92.587
-97.591
-101.294
-103.349
-103.626
-102.383
-100.374
-98.34
-96.93
-96.881
-98.854
-103.423
-110.202
-117.124
-121.688
-121.375
-115.327
-105.94
-94.714
-81.346
-63.389
-32.94
16.679
87.506
178.695
280.987
381.242
467.714
526.828
549.13
529.449
463.491
353.648
206.936
34.898
-142.624
-304.629
-432.63
-513.954
-549.435
-548.644
-523.384
-485.379
-439.79
-388.206
-334.715
-283.625
-239.624
-205.574
-178.571
-154.078
-129.764
-105.247
-83.289
-67.656
-59.083
-56.809
-58.923
-62.275
-64.993
-66.104
-65.077
-62.256
-58.054
-52.624
-46.369
-39.903
-33.845
-28.908
-25.381
-23.075
-21.751
-21.148
-21.027
-21.173
-21.261
-20.841
-19.601
-17.438
-14.34
-10.384
-5.629
-0.102
6.097
12.786
19.745
26.792
33.825
40.805
47.719
54.534
61.202
67.675
73.918
79.917
85.658
91.119
96.272
101.105
105.628
109.885
113.949
117.871
121.681
125.394
129.012
132.538
135.976
139.319
142.546
145.639
148.587
151.383
154.03
156.524
158.853
161.004
162.956
164.695
166.209
167.489
168.522
169.303
169.826
170.091
170.102
169.863
169.375
168.638
167.653
166.421
164.944
163.225
161.264
159.065
156.632
153.972
151.094
148.004
144.712
141.228
137.561
133.724
129.727
125.582
121.302
116.898
112.384
107.772
103.078
98.313
93.491
88.627
83.732
78.822
73.908
69.002
64.115
59.259
54.445
49.682
44.981
40.35
35.8
31.338
26.973
22.713
18.565
14.534
10.625
6.843
3.193
-0.324
-3.703
-6.943
-10.043
-13.001
-15.815
-18.487
-21.016
-23.402
-25.647
-27.751
-29.715
-31.541
-33.23
-34.783
-36.202
-37.488
-38.642
-39.667
-40.564
-41.335
-41.982
-42.506
-42.91
-43.196
-43.367
-43.425
-43.372
-43.213
-42.949
-42.585
-42.123
-41.568
-40.923
-40.194
-39.385
-38.5
-37.547
-36.53
-35.455
-34.33
-33.161
-31.956
-30.722
-29.468
-28.202
-26.934
-25.673
-24.429
-23.211
-22.029
-20.894
-19.815
-18.802
-17.865
-17.013
-16.254
-15.598
-15.052
-14.625
-14.323
-14.153
-14.119
-14.227
-14.48
-14.88
-15.428
-16.125
-16.969
-17.957
-19.087
-20.353
-21.75
-23.27
-24.905
-26.645
-28.479
-30.395
-32.379
-34.417
-36.492
-38.59
-40.692
-42.782
-44.841
-46.851
-48.795
-50.656
-52.415
-54.056
-55.562
-56.916
-58.104
-59.112
-59.928
-60.54
-60.937
-61.111
-61.058
-60.777
-60.267
-59.528
-58.563
-57.376
-55.975
-54.367
-52.56
-50.56
-48.378
-46.026
-43.52
-40.881
-38.126
-35.275
-32.348
-29.37
-26.362
-23.347
-20.342
-17.36
-14.417
-11.533
-8.734
-6.052
-3.51
-1.126
1.083
3.105
4.933
6.564
8.012
9.303
10.457
11.487
12.401
13.195
13.879
14.468
14.975
15.425
15.835
16.215
16.571
16.897
17.163
17.326
17.329
17.089
16.542
15.622
14.261
12.407
10.005
7.029
3.455
-0.777
-5.68
-11.206
-17.213
-23.389
-29.381
-34.907
-39.631
-43.142
-45.178
-45.572
-44.443
-42.428
-40.189
-38.234
-37.229
-37.81
-40.358
-45.215
-51.661
-57.49
-60.555
-58.568
-50.422
-37.394
-20.433
-0.146
24.505
57.943
104.626
168.148
249.499
344.234
444.15
537.616
610.577
650.35
646.557
593.201
491.359
347.483
174.448
-9.078
-183.258
-328.255
-429.538
-482.277
-489.189
-460.444
-410.246
-351.15
-294.666
-248.804
-214.619
-189.961
-168.989
-144.466
-115.193
-83.378
-53.158
-30.234
-16.101
-9.229
-7.87
-9.328
-11.609
-13.946
-15.442
-15.373
-13.754
-10.809
-6.706
-1.82
3.352
8.412
12.821
16.029
17.976
18.873
18.92
18.398
17.545
16.539
15.682
15.349
15.767
17.013
19.09
21.931
25.466
29.648
34.352
39.384
44.571
49.783
54.939
60.023
65.025
69.91
74.657
79.241
83.627
87.805
91.761
95.469
98.924
102.131
105.118
107.944
110.668
113.325
115.938
118.516
121.058
123.565
126.031
128.434
130.761
132.999
135.138
137.176
139.109
140.925
142.61
144.143
145.506
146.682
147.657
148.416
148.949
149.245
149.299
149.11
148.679
148.002
147.077
145.901
144.471
142.787
140.849
138.655
136.206
133.507
130.561
127.376
123.959
120.318
116.463
112.404
108.153
103.721
99.122
94.367
89.472
84.449
79.315
74.083
68.769
63.389
57.957
52.489
47
41.504
36.016
30.548
25.113
19.722
14.388
9.121
3.932
-1.17
-6.176
-11.077
-15.864
-20.532
-25.074
-29.485
-33.761
-37.897
-41.891
-45.74
-49.442
-52.995
-56.399
-59.651
-62.751
-65.7
-68.497
-71.142
-73.635
-75.977
-78.168
-80.208
-82.098
-83.838
-85.429
-86.869
-88.16
-89.302
-90.296
-91.14
-91.838
-92.388
-92.792
-93.052
-93.168
-93.144
-92.98
-92.68
-92.247
-91.685
-90.997
-90.188
-89.265
-88.232
-87.098
-85.869
-84.554
-83.162
-81.704
-80.188
-78.628
-77.034
-75.419
-73.796
-72.178
-70.579
-69.011
-67.491
-66.031
-64.645
-63.347
-62.15
-61.067
-60.111
-59.293
-58.623
-58.111
-57.766
-57.595
-57.604
-57.8
-58.185
-58.763
-59.535
-60.499
-61.656
-62.999
-64.525
-66.224
-68.088
-70.106
-72.265
-74.55
-76.947
-79.438
-82.006
-84.632
-87.296
-89.977
-92.653
-95.303
-97.904
-100.433
-102.869
-105.188
-107.369
-109.392
-111.239
-112.891
-114.331
-115.545
-116.518
-117.238
-117.695
-117.878
-117.78
-117.396
-116.721
-115.755
-114.502
-112.967
-111.161
-109.094
-106.78
-104.235
-101.478
-98.527
-95.401
-92.118
-88.697
-85.16
-81.53
-77.831
-74.09
-70.334
-66.591
-62.888
-59.252
-55.707
-52.274
-48.972
-45.815
-42.818
-39.996
-37.37
-34.97
-32.822
-30.942
-29.344
-28.036
-27.017
-26.282
-25.816
-25.586
-25.557
-25.697
-25.973
-26.369
-26.879
-27.486
-28.164
-28.87
-29.56
-30.22
-30.859
-31.489
-32.124
-32.775
-33.463
-34.273
-35.321
-36.712
-38.552
-40.898
-43.746
-47.129
-51.131
-55.794
-61.092
-66.835
-72.655
-78.235
-83.374
-87.831
-91.289
-93.42
-94.005
-93.291
-91.902
-90.449
-89.492
-89.537
-91.158
-95.039
-101.073
-107.578
-112.165
-112.187
-106.508
-97.099
-86.276
-75.292
-62.402
-40.864
-2.339
59.644
146.514
252.04
363.903
466.915
547.022
594.266
601.963
566.492
486.413
362.143
200.497
16.146
-169.799
-333.096
-453.96
-523.328
-544.131
-527.015
-486.289
-434.662
-379.618
-327.806
-283.519
-247.259
-219.161
-195.162
-169.708
-141.804
-112.146
-83.903
-62.02
-47.629
-39.598
-36.349
-35.187
-34.56
-34.078
-33.1
-31.167
-28.239
-24.347
-19.621
-14.462
-9.241
-4.197
0.267
3.789
6.364
8.106
9.16
9.766
10.126
10.413
10.948
12.092
14.024
16.812
20.451
24.863
29.988
35.751
41.991
48.474
55.016
61.502
67.877
74.141
80.277
86.244
92.005
97.53
102.808
107.833
112.591
117.058
121.231
125.128
128.798
132.319
135.748
139.117
142.448
145.745
149.013
152.261
155.48
158.652
161.763
164.801
167.763
170.65
173.457
176.172
178.777
181.253
183.58
185.745
187.733
189.528
191.118
192.493
193.646
194.577
195.281
195.752
195.986
195.973
195.71
195.19
194.411
193.364
192.049
190.463
188.606
186.482
184.093
181.443
178.537
175.383
171.989
168.362
164.513
160.453
156.191
151.742
147.117
142.331
137.397
132.331
127.148
121.863
116.493
111.052
105.557
100.022
94.462
88.891
83.324
77.776
72.258
66.786
61.371
56.027
50.764
45.595
40.529
35.574
30.739
26.031
21.456
17.019
12.726
8.58
4.585
0.742
-2.947
-6.479
-9.854
-13.073
-16.135
-19.041
-21.792
-24.389
-26.834
-29.127
-31.272
-33.269
-35.12
-36.827
-38.393
-39.819
-41.108
-42.263
-43.284
-44.175
-44.939
-45.579
-46.096
-46.494
-46.776
-46.944
-47.002
-46.953
-46.8
-46.547
-46.199
-45.758
-45.23
-44.62
-43.932
-43.174
-42.35
-41.466
-40.53
-39.548
-38.528
-37.477
-36.404
-35.316
-34.222
-33.132
-32.052
-30.994
-29.964
-28.971
-28.023
-27.129
-26.296
-25.531
-24.841
-24.233
-23.712
-23.284
-22.953
-22.725
-22.601
-22.583
-22.673
-22.869
-23.17
-23.575
-24.078
-24.677
-25.364
-26.135
-26.982
-27.897
-28.871
-29.892
-30.951
-32.035
-33.133
-34.229
-35.312
-36.367
-37.38
-38.34
-39.234
-40.05
-40.774
-41.396
-41.904
-42.289
-42.54
-42.649
-42.608
-42.408
-42.046
-41.52
-40.829
-39.977
-38.966
-37.803
-36.493
-35.048
-33.474
-31.782
-29.979
-28.073
-26.075
-23.999
-21.857
-19.666
-17.444
-15.208
-12.977
-10.771
-8.605
-6.496
-4.456
-2.493
-0.616
1.162
2.826
4.35
5.712
6.898
7.895
8.697
9.303
9.718
9.954
10.042
10.011
9.891
9.707
9.471
9.184
8.85
8.483
8.116
7.78
7.478
7.194
6.906
6.591
6.232
5.796
5.197
4.322
3.066
1.329
-0.952
-3.779
-7.178
-11.214
-15.92
-21.284
-27.163
-33.228
-39.159
-44.733
-49.678
-53.678
-56.428
-57.636
-57.341
-56.07
-54.419
-52.923
-52.271
-53.108
-55.901
-61.245
-68.556
-75.547
-80.07
-79.727
-73.469
-63.695
-51.937
-37.989
-20.039
9.243
56.871
125.35
215.038
318.271
422.23
514.782
580.742
607.91
589.536
521.092
405.652
252.053
73.111
-111.916
-282.708
-420.26
-511.01
-552.894
-552.132
-521.912
-477.084
-427.237
-379.664
-337.99
-302.643
-274.149
-250.09
-226.489
-200.731
-172.046
-142.02
-114.059
-91.398
-74.812
-63.685
-56.738
-52.021
-48.492
-45.786
-43.338
-40.745
-37.898
-34.578
-30.696
-26.517
-22.317
-18.375
-15.153
-13.003
-11.868
-11.632
-12.159
-13.179
-14.502
-15.888
-16.918
-17.224
-16.634
-15.086
-12.617
-9.31
-5.184
-0.309
5.166
11.043
17.1
23.197
29.281
35.321
41.283
47.115
52.735
58.105
63.235
68.128
72.786
77.202
81.355
85.263
88.98
92.564
96.082
99.576
103.06
106.546
110.046
113.561
117.093
120.63
124.139
127.602
131.004
134.333
137.581
140.731
143.756
146.632
149.334
151.839
154.127
156.179
157.975
159.499
160.741
161.693
162.348
162.702
162.746
162.473
161.877
160.954
159.7
158.111
156.187
153.928
151.339
148.424
145.193
141.654
137.817
133.696
129.305
124.658
119.771
114.662
109.348
103.848
98.183
92.372
86.438
80.4
74.282
68.104
61.889
55.657
49.43
43.226
37.066
30.969
24.952
19.033
13.229
7.554
2.023
-3.35
-8.552
-13.573
-18.403
-23.033
-27.458
-31.671
-35.667
-39.444
-42.998
-46.33
-49.439
-52.325
-54.99
-57.436
-59.667
-61.687
-63.499
-65.109
-66.522
-67.745
-68.783
-69.643
-70.332
-70.856
-71.222
-71.437
-71.507
-71.44
-71.243
-70.921
-70.483
-69.933
-69.28
-68.529
-67.687
-66.759
-65.752
-64.672
-63.525
-62.317
-61.053
-59.741
-58.385
-56.992
-55.567
-54.118
-52.649
-51.166
-49.675
-48.183
-46.694
-45.213
-43.748
-42.303
-40.884
-39.497
-38.147
-36.84
-35.582
-34.377
-33.232
-32.152
-31.14
-30.203
-29.345
-28.57
-27.881
-27.284
-26.78
-26.373
-26.066
-25.858
-25.752
-25.747
-25.843
-26.038
-26.331
-26.719
-27.2
-27.77
-28.425
-29.162
-29.976
-30.862
-31.815
-32.827
-33.891
-35.001
-36.148
-37.323
-38.516
-39.719
-40.922
-42.117
-43.293
-44.441
-45.55
-46.609
-47.61
-48.541
-49.392
-50.154
-50.815
-51.369
-51.808
-52.126
-52.318
-52.38
-52.306
-52.095
-51.744
-51.252
-50.618
-49.838
-48.915
-47.848
-46.642
-45.3
-43.829
-42.236
-40.532
-38.729
-36.838
-34.871
-32.841
-30.758
-28.633
-26.477
-24.299
-22.112
-19.927
-17.756
-15.616
-13.522
-11.489
-9.529
-7.652
-5.866
-4.178
-2.596
-1.116
0.259
1.524
2.664
3.651
4.462
5.09
5.527
5.771
5.826
5.693
5.39
4.961
4.445
3.879
3.288
2.661
1.998
1.319
0.654
0.059
-0.434
-0.836
-1.16
-1.395
-1.544
-1.599
-1.606
-1.714
-2.063
-2.77
-3.927
-5.535
-7.621
-10.302
-13.647
-17.648
-22.153
-26.803
-31.268
-35.373
-38.896
-41.551
-43.09
-43.319
-42.495
-41.37
-40.668
-41.124
-43.447
-48.17
-55.862
-66.198
-77.18
-86.424
-91.296
-90.439
-85.72
-78.302
-67.644
-51.524
-22.771
24.918
93.229
181.372
281.338
381.511
471.38
538.064
572.243
567.41
518.236
426.215
294.51
132.121
-44.474
-217.677
-365.108
-469.197
-523.361
-528.752
-497.755
-446.157
-386.692
-329.467
-279.147
-236.689
-201.035
-169.539
-139.275
-108.273
-77.345
-48.822
-25.619
-10.462
-3.289
-2.486
-6.082
-11.319
-16.447
-20.612
-22.98
-23.426
-22.187
-19.392
-15.413
-10.887
-6.328
-2.272
0.746
2.64
3.557
3.642
3.138
2.32
1.417
0.776
0.806
1.694
3.486
6.173
9.66
13.869
18.732
24.09
29.722
35.459
41.199
46.894
52.554
58.165
63.688
69.083
74.31
79.348
84.188
88.811
93.193
97.326
101.221
104.923
108.505
112.017
115.487
118.927
122.338
125.719
129.072
132.388
135.646
138.831
141.929
144.934
147.847
150.661
153.363
155.936
158.357
160.607
162.673
164.54
166.194
167.623
168.819
169.779
170.501
170.986
171.229
171.227
170.975
170.469
169.707
168.687
167.404
165.857
164.046
161.973
159.641
157.054
154.216
151.132
147.81
144.256
140.477
136.483
132.281
127.881
123.294
118.531
113.605
108.527
103.312
97.971
92.521
86.974
81.346
75.649
69.898
64.106
58.287
52.457
46.628
40.816
35.034
29.296
23.618
18.013
12.494
7.075
1.768
-3.416
-8.465
-13.367
-18.112
-22.691
-27.093
-31.31
-35.333
-39.155
-42.77
-46.169
-49.35
-52.306
-55.035
-57.532
-59.795
-61.822
-63.613
-65.167
-66.483
-67.564
-68.41
-69.025
-69.412
-69.575
-69.52
-69.253
-68.781
-68.11
-67.251
-66.211
-65.001
-63.632
-62.114
-60.461
-58.683
-56.795
-54.811
-52.743
-50.606
-48.415
-46.183
-43.927
-41.661
-39.399
-37.155
-34.945
-32.783
-30.681
-28.655
-26.715
-24.876
-23.147
-21.541
-20.067
-18.735
-17.553
-16.528
-15.668
-14.976
-14.458
-14.117
-13.954
-13.97
-14.165
-14.536
-15.082
-15.797
-16.677
-17.716
-18.906
-20.239
-21.707
-23.298
-25.002
-26.807
-28.7
-30.669
-32.7
-34.779
-36.892
-39.025
-41.163
-43.293
-45.4
-47.47
-49.488
-51.441
-53.315
-55.096
-56.773
-58.331
-59.762
-61.053
-62.197
-63.184
-64.007
-64.66
-65.135
-65.429
-65.537
-65.456
-65.185
-64.721
-64.065
-63.219
-62.186
-60.971
-59.577
-58.013
-56.284
-54.399
-52.366
-50.195
-47.896
-45.479
-42.954
-40.335
-37.635
-34.87
-32.057
-29.213
-26.353
-23.496
-20.659
-17.858
-15.106
-12.417
-9.801
-7.268
-4.833
-2.505
-0.298
1.776
3.705
5.478
7.085
8.521
9.779
10.861
11.769
12.507
13.077
13.475
13.69
13.712
13.539
13.173
12.619
11.889
10.999
9.971
8.847
7.664
6.46
5.266
4.098
2.962
1.869
0.842
-0.081
-0.862
-1.492
-1.983
-2.352
-2.617
-2.796
-2.92
-3.07
-3.363
-3.904
-4.795
-6.093
-7.803
-9.964
-12.661
-15.957
-19.856
-24.198
-28.661
-32.942
-36.822
-40.055
-42.34
-43.333
-42.789
-40.937
-38.37
-35.738
-33.758
-33.049
-34.198
-37.931
-44.203
-51.468
-57.693
-60.532
-58.722
-53.396
-45.692
-35.578
-20.773
3.524
43.008
101.501
178.633
270.924
369.904
464.229
543.428
595.923
612.962
588.894
518.859
403.752
249.769
69.45
-115.479
-281.79
-409.977
-488.284
-519.535
-514.911
-486.439
-445.432
-396.646
-342.029
-287.075
-237.171
-197.024
-168.613
-147.647
-128.484
-108.499
-87.811
-69.782
-58.226
-53.762
-55.232
-60.261
-65.953
-70.728
-73.646
-74.277
-72.957
-70.019
-65.699
-60.481
-54.807
-49.139
-44.204
-40.339
-37.47
-35.497
-34.169
-33.227
-32.54
-31.863
-30.816
-29.18
-26.826
-23.689
-19.869
-15.452
-10.511
-5.215
0.284
5.865
11.395
16.814
22.109
27.259
32.274
37.169
41.926
46.53
50.956
55.167
59.153
62.919
66.479
69.877
73.149
76.326
79.453
82.554
85.641
88.722
91.788
94.818
97.806
100.742
103.621
106.443
109.205
111.899
114.515
117.043
119.467
121.773
123.946
125.966
127.82
129.495
130.981
132.272
133.362
134.241
134.904
135.342
135.548
135.514
135.234
134.699
133.903
132.84
131.508
129.905
128.029
125.882
123.464
120.779
117.83
114.622
111.162
107.456
103.514
99.344
94.957
90.365
85.579
80.614
75.482
70.201
64.784
59.248
53.609
47.883
42.088
36.239
30.352
24.444
18.531
12.629
6.753
0.921
-4.854
-10.557
-16.173
-21.688
-27.091
-32.369
-37.512
-42.509
-47.351
-52.029
-56.535
-60.862
-65.004
-68.956
-72.712
-76.27
-79.626
-82.779
-85.726
-88.467
-91.001
-93.33
-95.453
-97.372
-99.089
-100.605
-101.924
-103.048
-103.981
-104.727
-105.289
-105.672
-105.882
-105.923
-105.8
-105.521
-105.091
-104.515
-103.802
-102.958
-101.99
-100.905
-99.711
-98.416
-97.028
-95.556
-94.006
-92.388
-90.711
-88.983
-87.212
-85.408
-83.58
-81.735
-79.884
-78.035
-76.197
-74.379
-72.589
-70.836
-69.128
-67.473
-65.878
-64.352
-62.9
-61.528
-60.242
-59.047
-57.948
-56.949
-56.052
-55.261
-54.578
-54.004
-53.54
-53.186
-52.941
-52.804
-52.772
-52.843
-53.013
-53.278
-53.634
-54.076
-54.597
-55.193
-55.857
-56.581
-57.357
-58.178
-59.035
-59.919
-60.822
-61.735
-62.65
-63.557
-64.449
-65.319
-66.159
-66.961
-67.719
-68.426
-69.074
-69.659
-70.173
-70.612
-70.97
-71.243
-71.428
-71.523
-71.525
-71.433
-71.245
-70.96
-70.577
-70.097
-69.52
-68.846
-68.077
-67.213
-66.261
-65.223
-64.106
-62.913
-61.651
-60.325
-58.943
-57.509
-56.029
-54.51
-52.956
-51.375
-49.774
-48.161
-46.544
-44.934
-43.34
-41.774
-40.247
-38.768
-37.347
-35.99
-34.703
-33.493
-32.363
-31.317
-30.36
-29.495
-28.732
-28.076
-27.532
-27.104
-26.792
-26.593
-26.507
-26.53
-26.649
-26.856
-27.147
-27.526
-28.012
-28.618
-29.345
-30.191
-31.152
-32.215
-33.369
-34.591
-35.829
-37.04
-38.183
-39.233
-40.201
-41.088
-41.878
-42.545
-43.033
-43.307
-43.379
-43.262
-42.95
-42.456
-41.785
-40.995
-40.249
-39.695
-39.456
-39.625
-40.19
-41.172
-42.664
-44.74
-47.431
-50.63
-54.044
-57.402
-60.547
-63.273
-65.302
-66.305
-65.941
-64.326
-61.991
-59.504
-57.617
-57.074
-58.522
-62.876
-70.003
-77.868
-84.32
-86.98
-85.078
-81.825
-78.985
-75.4
-67.261
-44.587
1.106
71.715
165.545
272.94
380.591
477.753
551.521
591.17
589.138
537.932
437.296
293.097
117.207
-69.139
-243.665
-386.162
-482.333
-532.109
-543.456
-527.627
-497.214
-457.66
-411.225
-362.299
-314.02
-270.476
-234.651
-203.744
-174.065
-144.136
-114.112
-87.37
-67.959
-56.616
-52.273
-52.972
-55.769
-58.915
-61.509
-62.53
-61.686
-59.129
-54.982
-49.587
-43.525
-37.293
-31.431
-26.592
-23.001
-20.519
-18.988
-18.153
-17.72
-17.468
-17.064
-16.05
-14.196
-11.451
-7.814
-3.388
1.732
7.495
13.747
20.257
26.857
33.414
39.858
46.196
52.407
58.446
64.282
69.874
75.2
80.268
85.066
89.578
93.805
97.761
101.49
105.07
108.559
111.992
115.394
118.773
122.133
125.487
128.831
132.153
135.44
138.682
141.874
145.02
148.113
151.145
154.098
156.952
159.687
162.29
164.745
167.036
169.151
171.076
172.803
174.329
175.647
176.75
177.628
178.271
178.67
178.817
178.703
178.321
177.661
176.72
175.492
173.977
172.174
170.081
167.7
165.033
162.083
158.856
155.356
151.591
147.569
143.298
138.791
134.06
129.116
123.975
118.652
113.162
107.522
101.751
95.865
89.881
83.819
77.696
71.531
65.344
59.153
52.976
46.833
40.744
34.726
28.797
22.974
17.273
11.711
6.302
1.06
-4.001
-8.87
-13.535
-17.985
-22.212
-26.208
-29.964
-33.476
-36.738
-39.748
-42.502
-45
-47.241
-49.226
-50.957
-52.436
-53.667
-54.654
-55.403
-55.92
-56.211
-56.284
-56.148
-55.811
-55.282
-54.572
-53.69
-52.648
-51.457
-50.127
-48.67
-47.098
-45.424
-43.658
-41.812
-39.899
-37.93
-35.917
-33.871
-31.802
-29.721
-27.639
-25.565
-23.508
-21.478
-19.482
-17.528
-15.623
-13.775
-11.988
-10.269
-8.623
-7.054
-5.565
-4.16
-2.842
-1.612
-0.473
0.574
1.529
2.392
3.162
3.841
4.43
4.93
5.343
5.673
5.92
6.09
6.184
6.208
6.164
6.056
5.89
5.67
5.399
5.084
4.729
4.339
3.92
3.477
3.016
2.542
2.06
1.575
1.094
0.622
0.164
-0.275
-0.689
-1.072
-1.42
-1.726
-1.985
-2.191
-2.34
-2.426
-2.445
-2.391
-2.26
-2.047
-1.75
-1.362
-0.882
-0.305
0.372
1.151
2.033
3.019
4.11
5.304
6.6
7.995
9.486
11.069
12.74
14.495
16.328
18.232
20.203
22.231
24.31
26.431
28.584
30.757
32.94
35.121
37.289
39.432
41.536
43.589
45.578
47.49
49.31
51.027
52.625
54.092
55.414
56.581
57.583
58.409
59.054
59.51
59.776
59.851
59.735
59.429
58.933
58.252
57.389
56.348
55.13
53.735
52.169
50.44
48.56
46.546
44.414
42.183
39.875
37.519
35.139
32.76
30.402
28.078
25.809
23.622
21.551
19.64
17.923
16.419
15.147
14.125
13.354
12.831
12.527
12.388
12.379
12.484
12.702
13.063
13.58
14.258
15.093
16.065
